time_s,voltage_v
0.0,0.01360274
8e-05,0.01340844
0.00016,0.0131514
0.00024,0.0134787
0.00032,0.01393385
0.0004,0.01381059
0.00048,0.01374249
0.00056,0.01383726
0.00064,0.01407845
0.00072,0.014145
0.0008,0.01404541
0.00088,0.01349804
0.00096,0.01332311
0.00104,0.01292361
0.00112,0.01313857
0.0012,0.01340428
0.00128,0.01329852
0.00136,0.01295212
0.00144,0.0120784
0.00152,0.01117162
0.0016,0.0104836
0.00168,0.01005173
0.00176,0.01027914
0.00184,0.01061199
0.00192,0.01034404
0.002,0.009916006
0.00208,0.009789521
0.00216,0.009335538
0.00224,0.008955074
0.00232,0.007830677
0.0024,0.006626268
0.00248,0.006802958
0.00256,0.006764538
0.00264,0.006322078
0.00272,0.005932572
0.0028,0.005431884
0.00288,0.005542271
0.00296,0.005822613
0.00304,0.005327082
0.00312,0.005063889
0.0032,0.004787875
0.00328,0.004725477
0.00336,0.00506559
0.00344,0.004793691
0.00352,0.004109805
0.0036,0.003794364
0.00368,0.00402827
0.00376,0.004100665
0.00384,0.003477028
0.00392,0.00284927
0.004,0.002937458
0.00408,0.003161286
0.00416,0.003158046
0.00424,0.002921687
0.00432,0.002195233
0.0044,0.001921166
0.00448,0.001480449
0.00456,0.001340272
0.00464,0.001289424
0.00472,0.001281723
0.0048,0.0009192183
0.00488,0.000313004
0.00496,0.0002023489
0.00504,-0.000161101
0.00512,-0.0004248295
0.0052,-0.0003316504
0.00528,7.154141e-05
0.00536,0.0003185219
0.00544,0.0003417537
0.00552,0.0004161925
0.0056,0.0004362628
0.00568,0.0002037285
0.00576,-0.0003949117
0.00584,-0.0007001132
0.00592,-0.001091822
0.006,-0.001684317
0.00608,-0.002223741
0.00616,-0.002357673
0.00624,-0.002684538
0.00632,-0.002842594
0.0064,-0.002256856
0.00648,-0.002102059
0.00656,-0.002904468
0.00664,-0.003576816
0.00672,-0.004344261
0.0068,-0.005160124
0.00688,-0.005579168
0.00696,-0.005885892
0.00704,-0.006421781
0.00712,-0.00682308
0.0072,-0.006774823
0.00728,-0.006771813
0.00736,-0.006726038
0.00744,-0.00712669
0.00752,-0.007681963
0.0076,-0.008423691
0.00768,-0.009132254
0.00776,-0.00923303
0.00784,-0.009357682
0.00792,-0.01004416
0.008,-0.01046214
0.00808,-0.01074628
0.00816,-0.01119755
0.00824,-0.0113998
0.00832,-0.01187683
0.0084,-0.01246938
0.00848,-0.01281937
0.00856,-0.01364646
0.00864,-0.01438259
0.00872,-0.01475329
0.0088,-0.01499461
0.00888,-0.01521995
0.00896,-0.0144696
0.00904,-0.01391921
0.00912,-0.01314327
0.0092,-0.01236907
0.00928,-0.01214955
0.00936,-0.012346
0.00944,-0.01250381
0.00952,-0.0125287
0.0096,-0.01318859
0.00968,-0.01354666
0.00976,-0.01302587
0.00984,-0.01230195
0.00992,-0.01237101
0.01,-0.01244905
0.01008,-0.01232135
0.01016,-0.01226513
0.01024,-0.01263707
0.01032,-0.01331145
0.0104,-0.01386828
0.01048,-0.01384928
0.01056,-0.01357357
0.01064,-0.01285485
0.01072,-0.01179751
0.0108,-0.01103594
0.01088,-0.01064031
0.01096,-0.01077754
0.01104,-0.0108021
0.01112,-0.0104675
0.0112,-0.01000836
0.01128,-0.009907308
0.01136,-0.01000598
0.01144,-0.01057852
0.01152,-0.01114285
0.0116,-0.01165237
0.01168,-0.01139497
0.01176,-0.01141052
0.01184,-0.01179261
0.01192,-0.01236909
0.012,-0.01297542
0.01208,-0.01376024
0.01216,-0.01354694
0.01224,-0.0132638
0.01232,-0.01321039
0.0124,-0.01166243
0.01248,-0.01081995
0.01256,-0.01084738
0.01264,-0.01114225
0.01272,-0.01114142
0.0128,-0.01115937
0.01288,-0.01115161
0.01296,-0.01043184
0.01304,-0.01015511
0.01312,-0.01001923
0.0132,-0.009827653
0.01328,-0.01002691
0.01336,-0.01051014
0.01344,-0.01058664
0.01352,-0.01000293
0.0136,-0.009557107
0.01368,-0.009244727
0.01376,-0.008963991
0.01384,-0.009250915
0.01392,-0.008732887
0.014,-0.007544881
0.01408,-0.006671137
0.01416,-0.006015823
0.01424,-0.005969584
0.01432,-0.005988569
0.0144,-0.005728366
0.01448,-0.005240694
0.01456,-0.004495467
0.01464,-0.003991045
0.01472,-0.003704652
0.0148,-0.002968918
0.01488,-0.00228851
0.01496,-0.002563642
0.01504,-0.003311385
0.01512,-0.002988435
0.0152,-0.001696767
0.01528,-0.0008855445
0.01536,-0.000952573
0.01544,-0.0007840744
0.01552,-0.0009891812
0.0156,-0.001486802
0.01568,-0.001784924
0.01576,-0.001168692
0.01584,-0.0006014669
0.01592,0.000384378
0.016,0.001207687
0.01608,0.001873858
0.01616,0.002036771
0.01624,0.001649879
0.01632,0.001617414
0.0164,0.002565964
0.01648,0.003121372
0.01656,0.002918157
0.01664,0.003357421
0.01672,0.004107028
0.0168,0.004382375
0.01688,0.004545425
0.01696,0.004954201
0.01704,0.00545444
0.01712,0.006278796
0.0172,0.006246672
0.01728,0.005912418
0.01736,0.006010387
0.01744,0.006344832
0.01752,0.006967552
0.0176,0.00727848
0.01768,0.007283162
0.01776,0.007367195
0.01784,0.00803431
0.01792,0.008581104
0.018,0.008722521
0.01808,0.008555973
0.01816,0.008264588
0.01824,0.008038845
0.01832,0.007839316
0.0184,0.008187884
0.01848,0.008998789
0.01856,0.01003814
0.01864,0.0105073
0.01872,0.01032175
0.0188,0.01068865
0.01888,0.01147174
0.01896,0.01173102
0.01904,0.01222522
0.01912,0.01293164
0.0192,0.01325973
0.01928,0.01354611
0.01936,0.01386978
0.01944,0.01329559
0.01952,0.01245388
0.0196,0.01242097
0.01968,0.01328997
0.01976,0.01359749
0.01984,0.01337731
0.01992,0.01328759
0.02,0.01240656
0.02008,0.01172032
0.02016,0.0109708
0.02024,0.01087012
0.02032,0.01127932
0.0204,0.01139598
0.02048,0.01144003
0.02056,0.01047059
0.02064,0.009817168
0.02072,0.009359788
0.0208,0.008691008
0.02088,0.008687906
0.02096,0.007900071
0.02104,0.007158739
0.02112,0.007547124
0.0212,0.00793216
0.02128,0.008305378
0.02136,0.008444631
0.02144,0.008247172
0.02152,0.007865073
0.0216,0.007734426
0.02168,0.007621988
0.02176,0.007371501
0.02184,0.007668849
0.02192,0.008412436
0.022,0.008768588
0.02208,0.008424727
0.02216,0.008159008
0.02224,0.008007951
0.02232,0.007459913
0.0224,0.006711014
0.02248,0.006364226
0.02256,0.006296531
0.02264,0.006781316
0.02272,0.007975709
0.0228,0.009455941
0.02288,0.01023715
0.02296,0.01018883
0.02304,0.009754252
0.02312,0.008946287
0.0232,0.008701093
0.02328,0.008144368
0.02336,0.007725657
0.02344,0.007452628
0.02352,0.007006829
0.0236,0.006400642
0.02368,0.006256541
0.02376,0.005993837
0.02384,0.004872506
0.02392,0.004005585
0.024,0.004114116
0.02408,0.004382523
0.02416,0.004603842
0.02424,0.004547438
0.02432,0.003912922
0.0244,0.003391788
0.02448,0.003532205
0.02456,0.003177851
0.02464,0.002336385
0.02472,0.001556923
0.0248,0.001275705
0.02488,0.001440946
0.02496,0.00122744
0.02504,0.001339861
0.02512,0.001390055
0.0252,0.001448207
0.02528,0.002009849
0.02536,0.001916885
0.02544,0.001940861
0.02552,0.001933198
0.0256,0.001055849
0.02568,0.0002849096
0.02576,-0.0004915968
0.02584,-0.00119161
0.02592,-0.002041928
0.026,-0.003014208
0.02608,-0.003480159
0.02616,-0.004004025
0.02624,-0.00437701
0.02632,-0.004155908
0.0264,-0.003905113
0.02648,-0.003469229
0.02656,-0.0032106
0.02664,-0.003712356
0.02672,-0.004330592
0.0268,-0.004931323
0.02688,-0.005109077
0.02696,-0.005332527
0.02704,-0.005227441
0.02712,-0.005714136
0.0272,-0.006601954
0.02728,-0.006345581
0.02736,-0.006053569
0.02744,-0.00629548
0.02752,-0.006431288
0.0276,-0.006950471
0.02768,-0.007492027
0.02776,-0.007950906
0.02784,-0.007802127
0.02792,-0.007585992
0.028,-0.007167293
0.02808,-0.006464754
0.02816,-0.006631875
0.02824,-0.006954778
0.02832,-0.007610931
0.0284,-0.008222043
0.02848,-0.008826939
0.02856,-0.009002109
0.02864,-0.008719772
0.02872,-0.008173203
0.0288,-0.008252725
0.02888,-0.008228707
0.02896,-0.0080212
0.02904,-0.008528644
0.02912,-0.008672404
0.0292,-0.008681292
0.02928,-0.009788183
0.02936,-0.0109626
0.02944,-0.01095148
0.02952,-0.01033195
0.0296,-0.01037986
0.02968,-0.009873736
0.02976,-0.008561816
0.02984,-0.007408348
0.02992,-0.006942561
0.03,-0.006976923
0.03008,-0.007312565
0.03016,-0.007671854
0.03024,-0.007390784
0.03032,-0.006696384
0.0304,-0.005745766
0.03048,-0.004965301
0.03056,-0.004975086
0.03064,-0.004975955
0.03072,-0.004802235
0.0308,-0.005399171
0.03088,-0.0059129
0.03096,-0.006200599
0.03104,-0.006458335
0.03112,-0.006579819
0.0312,-0.00656966
0.03128,-0.006954303
0.03136,-0.006255283
0.03144,-0.005161399
0.03152,-0.005240738
0.0316,-0.005375295
0.03168,-0.005267586
0.03176,-0.005976073
0.03184,-0.007026197
0.03192,-0.00799812
0.032,-0.008509563
0.03208,-0.008413056
0.03216,-0.008217174
0.03224,-0.00768719
0.03232,-0.007660495
0.0324,-0.007927586
0.03248,-0.007531784
0.03256,-0.007499403
0.03264,-0.00762161
0.03272,-0.007522956
0.0328,-0.006810904
0.03288,-0.007110114
0.03296,-0.008021455
0.03304,-0.009077393
0.03312,-0.009892388
0.0332,-0.01025812
0.03328,-0.01034641
0.03336,-0.01058992
0.03344,-0.01093139
0.03352,-0.0109751
0.0336,-0.01040084
0.03368,-0.01042939
0.03376,-0.01039338
0.03384,-0.009712039
0.03392,-0.009332465
0.034,-0.009544007
0.03408,-0.009545187
0.03416,-0.009081715
0.03424,-0.008322096
0.03432,-0.007056231
0.0344,-0.005377717
0.03448,-0.003807411
0.03456,-0.003062002
0.03464,-0.003120646
0.03472,-0.003694359
0.0348,-0.004020596
0.03488,-0.0041216
0.03496,-0.004264739
0.03504,-0.003908176
0.03512,-0.003134779
0.0352,-0.002551905
0.03528,-0.001954559
0.03536,-0.001511367
0.03544,-0.0009265449
0.03552,-0.000264822
0.0356,0.0005530192
0.03568,0.0009864033
0.03576,0.0006634662
0.03584,0.000943125
0.03592,0.001201265
0.036,0.001961231
0.03608,0.001936165
0.03616,0.001397169
0.03624,0.0004776779
0.03632,0.0003437865
0.0364,0.0006761531
0.03648,0.0007745506
0.03656,0.000992423
0.03664,0.0008287601
0.03672,0.001356277
0.0368,0.001965621
0.03688,0.0023424
0.03696,0.00293631
0.03704,0.003083095
0.03712,0.003204106
0.0372,0.003700721
0.03728,0.004379776
0.03736,0.005018899
0.03744,0.005512196
0.03752,0.006270081
0.0376,0.007268607
0.03768,0.008288073
0.03776,0.008218423
0.03784,0.007963968
0.03792,0.008357256
0.038,0.008573174
0.03808,0.008825866
0.03816,0.008116667
0.03824,0.00794235
0.03832,0.008535797
0.0384,0.009232474
0.03848,0.00998494
0.03856,0.01024763
0.03864,0.01058753
0.03872,0.0108673
0.0388,0.01087839
0.03888,0.01086387
0.03896,0.01123628
0.03904,0.01115741
0.03912,0.0109862
0.0392,0.01105101
0.03928,0.01203491
0.03936,0.0124942
0.03944,0.01263107
0.03952,0.01316965
0.0396,0.0128769
0.03968,0.01347437
0.03976,0.01384844
0.03984,0.01359624
0.03992,0.0130955
0.04,0.01276242
0.04008,0.01323896
0.04016,0.01383763
0.04024,0.01395071
0.04032,0.01348063
0.0404,0.0125209
0.04048,0.01191217
0.04056,0.0117209
0.04064,0.011943
0.04072,0.012204
0.0408,0.01271026
0.04088,0.01270266
0.04096,0.01256503
0.04104,0.01304773
0.04112,0.01335689
0.0412,0.01365003
0.04128,0.01336932
0.04136,0.01373204
0.04144,0.01465082
0.04152,0.01586652
0.0416,0.01601827
0.04168,0.01521954
0.04176,0.01458708
0.04184,0.01448623
0.04192,0.01439236
0.042,0.01438015
0.04208,0.01469422
0.04216,0.01479328
0.04224,0.01394679
0.04232,0.01263314
0.0424,0.01187422
0.04248,0.01216206
0.04256,0.01286652
0.04264,0.01283794
0.04272,0.01324297
0.0428,0.01299732
0.04288,0.0123414
0.04296,0.01177696
0.04304,0.01113879
0.04312,0.01027073
0.0432,0.009757216
0.04328,0.009600506
0.04336,0.008906451
0.04344,0.008150418
0.04352,0.007021876
0.0436,0.005906996
0.04368,0.004672552
0.04376,0.003356196
0.04384,0.002839441
0.04392,0.002810271
0.044,0.002400221
0.04408,0.002103052
0.04416,0.00207166
0.04424,0.001712763
0.04432,0.00128077
0.0444,0.0009777094
0.04448,0.0004377322
0.04456,0.0006357139
0.04464,0.0007757552
0.04472,0.0004451834
0.0448,0.0001097008
0.04488,-0.0004793142
0.04496,-0.001146796
0.04504,-0.001431375
0.04512,-0.001039299
0.0452,-0.001061777
0.04528,-0.001054348
0.04536,-0.001196426
0.04544,-0.001697515
0.04552,-0.001442892
0.0456,-0.0008205866
0.04568,-0.0001114967
0.04576,0.0002879014
0.04584,0.0003895013
0.04592,-0.0003306301
0.046,-0.001219173
0.04608,-0.00191526
0.04616,-0.002562701
0.04624,-0.002782273
0.04632,-0.003381583
0.0464,-0.003850569
0.04648,-0.00353512
0.04656,-0.00315507
0.04664,-0.003643289
0.04672,-0.004227467
0.0468,-0.004232808
0.04688,-0.003573013
0.04696,-0.003377833
0.04704,-0.003038015
0.04712,-0.002932743
0.0472,-0.002919233
0.04728,-0.003057616
0.04736,-0.00338976
0.04744,-0.003668131
0.04752,-0.004267763
0.0476,-0.004809206
0.04768,-0.005215765
0.04776,-0.005398742
0.04784,-0.004954498
0.04792,-0.005244662
0.048,-0.005933057
0.04808,-0.006092359
0.04816,-0.005758561
0.04824,-0.005634663
0.04832,-0.005969706
0.0484,-0.006459259
0.04848,-0.007195718
0.04856,-0.008511704
0.04864,-0.009222624
0.04872,-0.01013813
0.0488,-0.01129251
0.04888,-0.01133773
0.04896,-0.0107269
0.04904,-0.009780905
0.04912,-0.009447944
0.0492,-0.008875284
0.04928,-0.008988779
0.04936,-0.009441204
0.04944,-0.009861607
0.04952,-0.01039057
0.0496,-0.01111863
0.04968,-0.01103751
0.04976,-0.01076279
0.04984,-0.01062556
0.04992,-0.01099099
0.05,-0.01125788
0.05008,-0.01152982
0.05016,-0.01235875
0.05024,-0.01237082
0.05032,-0.01238284
0.0504,-0.01227216
0.05048,-0.01202216
0.05056,-0.01224833
0.05064,-0.01234174
0.05072,-0.01227063
0.0508,-0.01229992
0.05088,-0.0127038
0.05096,-0.01285105
0.05104,-0.01303986
0.05112,-0.01285188
0.0512,-0.01261956
0.05128,-0.01233435
0.05136,-0.01193203
0.05144,-0.011617
0.05152,-0.01167475
0.0516,-0.01199054
0.05168,-0.01232287
0.05176,-0.01302136
0.05184,-0.01339471
0.05192,-0.01315785
0.052,-0.01296176
0.05208,-0.01303032
0.05216,-0.01321975
0.05224,-0.01315902
0.05232,-0.01311202
0.0524,-0.01281977
0.05248,-0.01247753
0.05256,-0.01233712
0.05264,-0.01221497
0.05272,-0.01250922
0.0528,-0.01251846
0.05288,-0.01202169
0.05296,-0.01115807
0.05304,-0.01025447
0.05312,-0.009619018
0.0532,-0.00925746
0.05328,-0.009022506
0.05336,-0.008865832
0.05344,-0.008137313
0.05352,-0.007494277
0.0536,-0.007327416
0.05368,-0.007055388
0.05376,-0.006769256
0.05384,-0.006263443
0.05392,-0.006102057
0.054,-0.00626529
0.05408,-0.006272838
0.05416,-0.006096649
0.05424,-0.005566773
0.05432,-0.004574151
0.0544,-0.003583315
0.05448,-0.002579778
0.05456,-0.001427163
0.05464,-0.0007033879
0.05472,-0.000102498
0.0548,-1.804133e-05
0.05488,0.0002199525
0.05496,0.0003137997
0.05504,0.0008613637
0.05512,0.001207289
0.0552,0.001149049
0.05528,0.001503507
0.05536,0.001944442
0.05544,0.002759977
0.05552,0.003061648
0.0556,0.00308754
0.05568,0.003354753
0.05576,0.003447561
0.05584,0.003780729
0.05592,0.004473876
0.056,0.004381777
0.05608,0.004132526
0.05616,0.003858367
0.05624,0.003790665
0.05632,0.003689076
0.0564,0.004351493
0.05648,0.005255569
0.05656,0.005801991
0.05664,0.006025196
0.05672,0.006410465
0.0568,0.007090254
0.05688,0.00744344
0.05696,0.00772677
0.05704,0.008014828
0.05712,0.008992036
0.0572,0.01003763
0.05728,0.01080963
0.05736,0.0113284
0.05744,0.01171761
0.05752,0.01205617
0.0576,0.01164367
0.05768,0.01094768
0.05776,0.01080014
0.05784,0.0108445
0.05792,0.01175981
0.058,0.01268573
0.05808,0.0128992
0.05816,0.01294685
0.05824,0.012481
0.05832,0.01190589
0.0584,0.01154944
0.05848,0.01138888
0.05856,0.01142725
0.05864,0.01239349
0.05872,0.01296563
0.0588,0.01367784
0.05888,0.01426532
0.05896,0.01433444
0.05904,0.01438555
0.05912,0.01422298
0.0592,0.01407988
0.05928,0.01454184
0.05936,0.01492221
0.05944,0.01535725
0.05952,0.01607883
0.0596,0.01640751
0.05968,0.01599577
0.05976,0.01561095
0.05984,0.01531645
0.05992,0.01515371
0.06,0.01518163
0.06008,0.0156553
0.06016,0.01559355
0.06024,0.01557014
0.06032,0.0152902
0.0604,0.01481866
0.06048,0.01456114
0.06056,0.01409945
0.06064,0.01351305
0.06072,0.01341225
0.0608,0.0137404
0.06088,0.01337054
0.06096,0.01269789
0.06104,0.01179152
0.06112,0.01153389
0.0612,0.01126772
0.06128,0.01101759
0.06136,0.01110747
0.06144,0.0110078
0.06152,0.01059505
0.0616,0.01037725
0.06168,0.01057877
0.06176,0.01026767
0.06184,0.0102353
0.06192,0.009688531
0.062,0.008867959
0.06208,0.008660659
0.06216,0.008269083
0.06224,0.008200634
0.06232,0.008613885
0.0624,0.009156784
0.06248,0.009111296
0.06256,0.008738025
0.06264,0.008459995
0.06272,0.007295059
0.0628,0.00640263
0.06288,0.005836683
0.06296,0.005685304
0.06304,0.005665223
0.06312,0.005714402
0.0632,0.005357801
0.06328,0.004672979
0.06336,0.003973561
0.06344,0.002929297
0.06352,0.002573498
0.0636,0.002236292
0.06368,0.001764203
0.06376,0.001826963
0.06384,0.002166143
0.06392,0.003089227
0.064,0.003458085
0.06408,0.003919079
0.06416,0.003499011
0.06424,0.002560747
0.06432,0.001934413
0.0644,0.0009738503
0.06448,0.001038483
0.06456,0.0005373787
0.06464,0.0002290628
0.06472,-0.0005532096
0.0648,-0.00102858
0.06488,-0.0001333571
0.06496,5.196076e-05
0.06504,-0.0009083801
0.06512,-0.001659792
0.0652,-0.00180024
0.06528,-0.002238195
0.06536,-0.002920322
0.06544,-0.003619033
0.06552,-0.00431974
0.0656,-0.00523315
0.06568,-0.006148714
0.06576,-0.006568788
0.06584,-0.007065633
0.06592,-0.007956387
0.066,-0.008460657
0.06608,-0.008458555
0.06616,-0.008094991
0.06624,-0.007895098
0.06632,-0.007936765
0.0664,-0.007359515
0.06648,-0.007618123
0.06656,-0.007869941
0.06664,-0.007939288
0.06672,-0.008332999
0.0668,-0.008518683
0.06688,-0.009122293
0.06696,-0.009661472
0.06704,-0.01042625
0.06712,-0.01081162
0.0672,-0.01031258
0.06728,-0.010035
0.06736,-0.01008827
0.06744,-0.01059062
0.06752,-0.01103644
0.0676,-0.01149615
0.06768,-0.01206256
0.06776,-0.01262139
0.06784,-0.01351187
0.06792,-0.01464741
0.068,-0.01455219
0.06808,-0.01362644
0.06816,-0.01325099
0.06824,-0.01313607
0.06832,-0.01316876
0.0684,-0.01349501
0.06848,-0.01357128
0.06856,-0.01361415
0.06864,-0.01390592
0.06872,-0.01478174
0.0688,-0.01483522
0.06888,-0.01501806
0.06896,-0.01473975
0.06904,-0.01436699
0.06912,-0.01414758
0.0692,-0.01406227
0.06928,-0.01434249
0.06936,-0.0150813
0.06944,-0.01552021
0.06952,-0.01556432
0.0696,-0.01540807
0.06968,-0.01501036
0.06976,-0.01460592
0.06984,-0.01436789
0.06992,-0.01545772
0.07,-0.01662351
0.07008,-0.01684254
0.07016,-0.01744217
0.07024,-0.01768179
0.07032,-0.01686209
0.0704,-0.01581223
0.07048,-0.01517588
0.07056,-0.01509881
0.07064,-0.01500508
0.07072,-0.0147081
0.0708,-0.01418902
0.07088,-0.01388254
0.07096,-0.01412936
0.07104,-0.01388663
0.07112,-0.01415075
0.0712,-0.0140563
0.07128,-0.01375004
0.07136,-0.01361177
0.07144,-0.01404538
0.07152,-0.0140797
0.0716,-0.01343931
0.07168,-0.01296744
0.07176,-0.01309779
0.07184,-0.01370589
0.07192,-0.0139016
0.072,-0.01478879
0.07208,-0.01529558
0.07216,-0.01458213
0.07224,-0.01390243
0.07232,-0.0131639
0.0724,-0.01343583
0.07248,-0.01359135
0.07256,-0.01316419
0.07264,-0.01278573
0.07272,-0.01287057
0.0728,-0.01342387
0.07288,-0.01314682
0.07296,-0.01225445
0.07304,-0.01112376
0.07312,-0.01036088
0.0732,-0.01023372
0.07328,-0.009836056
0.07336,-0.009501366
0.07344,-0.008571679
0.07352,-0.007515518
0.0736,-0.00619261
0.07368,-0.005303279
0.07376,-0.005116612
0.07384,-0.005082411
0.07392,-0.004872489
0.074,-0.003986019
0.07408,-0.002993818
0.07416,-0.001983688
0.07424,-0.001189247
0.07432,-0.001392722
0.0744,-0.001905545
0.07448,-0.002086471
0.07456,-0.00261359
0.07464,-0.002719016
0.07472,-0.001904404
0.0748,-0.0006195789
0.07488,0.000110268
0.07496,0.0005521998
0.07504,0.001154761
0.07512,0.001089014
0.0752,0.0008419093
0.07528,0.0007684934
0.07536,0.0002567133
0.07544,-8.409146e-06
0.07552,0.0001139362
0.0756,0.0002532974
0.07568,0.001054898
0.07576,0.001316033
0.07584,0.001214606
0.07592,0.001192746
0.076,0.001314457
0.07608,0.001675295
0.07616,0.00161495
0.07624,0.002131625
0.07632,0.002627633
0.0764,0.003279794
0.07648,0.004120128
0.07656,0.004471773
0.07664,0.005187862
0.07672,0.005560107
0.0768,0.00622281
0.07688,0.006835617
0.07696,0.006945089
0.07704,0.006833561
0.07712,0.0067363
0.0772,0.007360974
0.07728,0.008144029
0.07736,0.008802288
0.07744,0.009267355
0.07752,0.009854769
0.0776,0.01098921
0.07768,0.01142087
0.07776,0.01250279
0.07784,0.01337024
0.07792,0.01292424
0.078,0.01309566
0.07808,0.01368122
0.07816,0.01455052
0.07824,0.01522221
0.07832,0.01587578
0.0784,0.01642502
0.07848,0.01668777
0.07856,0.0166364
0.07864,0.0172772
0.07872,0.01759933
0.0788,0.01743514
0.07888,0.016797
0.07896,0.01631167
0.07904,0.01637034
0.07912,0.01661924
0.0792,0.01636217
0.07928,0.01573397
0.07936,0.01512503
0.07944,0.01526833
0.07952,0.01482623
0.0796,0.01457476
0.07968,0.01469432
0.07976,0.01547279
0.07984,0.0161458
0.07992,0.01645709
0.08,0.0159477
0.08008,0.01517265
0.08016,0.01529799
0.08024,0.01512374
0.08032,0.0148221
0.0804,0.01448557
0.08048,0.01393116
0.08056,0.01391333
0.08064,0.0133607
0.08072,0.01340409
0.0808,0.01327832
0.08088,0.01255736
0.08096,0.01238824
0.08104,0.01220409
0.08112,0.0122062
0.0812,0.01243611
0.08128,0.01333732
0.08136,0.01442331
0.08144,0.01464695
0.08152,0.01449882
0.0816,0.0145119
0.08168,0.01469018
0.08176,0.01464594
0.08184,0.01416309
0.08192,0.01429312
0.082,0.01447979
0.08208,0.01457871
0.08216,0.0138887
0.08224,0.01297962
0.08232,0.01169998
0.0824,0.01126427
0.08248,0.01088393
0.08256,0.01099456
0.08264,0.01136654
0.08272,0.01101897
0.0828,0.01109318
0.08288,0.01124128
0.08296,0.01157183
0.08304,0.0116457
0.08312,0.01169421
0.0832,0.01167015
0.08328,0.01122546
0.08336,0.0114441
0.08344,0.01145023
0.08352,0.01119457
0.0836,0.01061366
0.08368,0.01001259
0.08376,0.008962004
0.08384,0.00731515
0.08392,0.005648483
0.084,0.004698674
0.08408,0.004805269
0.08416,0.004579008
0.08424,0.004335721
0.08432,0.003723513
0.0844,0.003099894
0.08448,0.002370033
0.08456,0.001698232
0.08464,0.001111113
0.08472,0.0005921546
0.0848,0.000680571
0.08488,0.000792007
0.08496,0.0006758797
0.08504,0.00069355
0.08512,0.001165286
0.0852,0.001575758
0.08528,0.0003900952
0.08536,-0.0006149926
0.08544,-0.001690051
0.08552,-0.002605396
0.0856,-0.004035948
0.08568,-0.00509371
0.08576,-0.005400565
0.08584,-0.005519793
0.08592,-0.005090397
0.086,-0.004808915
0.08608,-0.004625773
0.08616,-0.004509432
0.08624,-0.004681791
0.08632,-0.005047444
0.0864,-0.006034034
0.08648,-0.006550201
0.08656,-0.006442091
0.08664,-0.006381579
0.08672,-0.006494048
0.0868,-0.006777378
0.08688,-0.007422545
0.08696,-0.008046021
0.08704,-0.008536366
0.08712,-0.009262203
0.0872,-0.009436706
0.08728,-0.009062743
0.08736,-0.008057936
0.08744,-0.007538872
0.08752,-0.007369452
0.0876,-0.007666854
0.08768,-0.008106065
0.08776,-0.008412763
0.08784,-0.008771903
0.08792,-0.009388612
0.088,-0.009764621
0.08808,-0.008918148
0.08816,-0.008964722
0.08824,-0.008810377
0.08832,-0.008649069
0.0884,-0.009286718
0.08848,-0.009820595
0.08856,-0.01022836
0.08864,-0.01021756
0.08872,-0.01002673
0.0888,-0.01002306
0.08888,-0.01003788
0.08896,-0.01038899
0.08904,-0.01049629
0.08912,-0.01138194
0.0892,-0.01237013
0.08928,-0.01301485
0.08936,-0.01325046
0.08944,-0.01362722
0.08952,-0.01405684
0.0896,-0.01391284
0.08968,-0.01391766
0.08976,-0.01442991
0.08984,-0.01464684
0.08992,-0.01459935
0.09,-0.01462627
0.09008,-0.01487504
0.09016,-0.01474844
0.09024,-0.01461612
0.09032,-0.01438013
0.0904,-0.01431072
0.09048,-0.01426221
0.09056,-0.01436278
0.09064,-0.01487007
0.09072,-0.01552788
0.0908,-0.01592911
0.09088,-0.01621171
0.09096,-0.01634287
0.09104,-0.01618019
0.09112,-0.01627108
0.0912,-0.01591571
0.09128,-0.01504291
0.09136,-0.01474397
0.09144,-0.01461472
0.09152,-0.01457138
0.0916,-0.014616
0.09168,-0.01442488
0.09176,-0.01425385
0.09184,-0.01366718
0.09192,-0.01305744
0.092,-0.01261466
0.09208,-0.01246683
0.09216,-0.01218188
0.09224,-0.01215725
0.09232,-0.01173663
0.0924,-0.01142187
0.09248,-0.01107394
0.09256,-0.01008266
0.09264,-0.00862933
0.09272,-0.007713131
0.0928,-0.007158569
0.09288,-0.006563024
0.09296,-0.005949676
0.09304,-0.00578903
0.09312,-0.004662647
0.0932,-0.003096802
0.09328,-0.002304951
0.09336,-0.002229464
0.09344,-0.00207316
0.09352,-0.001944401
0.0936,-0.001958257
0.09368,-0.001710352
0.09376,-0.001665821
0.09384,-0.001069884
0.09392,-6.011028e-05
0.094,0.0007525017
0.09408,0.0008698259
0.09416,0.001166325
0.09424,0.001475521
0.09432,0.001485923
0.0944,0.001860426
0.09448,0.002939625
0.09456,0.004200607
0.09464,0.005287978
0.09472,0.00558606
0.0948,0.005442841
0.09488,0.00552707
0.09496,0.00502877
0.09504,0.004974524
0.09512,0.005004728
0.0952,0.005071209
0.09528,0.004635615
0.09536,0.004522954
0.09544,0.005333929
0.09552,0.006046771
0.0956,0.006617377
0.09568,0.0069532
0.09576,0.007749148
0.09584,0.008950235
0.09592,0.00935727
0.096,0.009398362
0.09608,0.009089047
0.09616,0.008970371
0.09624,0.009407682
0.09632,0.009583024
0.0964,0.009356507
0.09648,0.009424657
0.09656,0.009690832
0.09664,0.01030626
0.09672,0.01124996
0.0968,0.01190072
0.09688,0.01170906
0.09696,0.01101119
0.09704,0.01056985
0.09712,0.01059097
0.0972,0.01162985
0.09728,0.01217902
0.09736,0.01209436
0.09744,0.01132631
0.09752,0.01079156
0.0976,0.01062878
0.09768,0.009740436
0.09776,0.008708952
0.09784,0.008943422
0.09792,0.008977302
0.098,0.009039913
0.09808,0.008938889
0.09816,0.008870499
0.09824,0.009132246
0.09832,0.009989095
0.0984,0.01055681
0.09848,0.01073216
0.09856,0.01100122
0.09864,0.01054171
0.09872,0.01004621
0.0988,0.009293072
0.09888,0.008605837
0.09896,0.008014507
0.09904,0.007367304
0.09912,0.007400101
0.0992,0.007103701
0.09928,0.006999993
0.09936,0.007050752
0.09944,0.00709713
0.09952,0.007174485
0.0996,0.00707264
0.09968,0.006966202
0.09976,0.006813953
0.09984,0.006901589
0.09992,0.007257669
0.1,0.008196066
0.10008,0.008997994
0.10016,0.009604755
0.10024,0.009861087
0.10032,0.009896637
0.1004,0.009335889
0.10048,0.008670837
0.10056,0.007996847
0.10064,0.007307589
0.10072,0.006953077
0.1008,0.007725067
0.10088,0.008767917
0.10096,0.0095892
0.10104,0.009542658
0.10112,0.008976568
0.1012,0.008499761
0.10128,0.008296777
0.10136,0.008126913
0.10144,0.007504381
0.10152,0.007420926
0.1016,0.007425305
0.10168,0.007657948
0.10176,0.00780721
0.10184,0.007972714
0.10192,0.008975318
0.102,0.009897206
0.10208,0.01012633
0.10216,0.01040843
0.10224,0.01069224
0.10232,0.01030794
0.1024,0.01000314
0.10248,0.00995584
0.10256,0.00970576
0.10264,0.00952427
0.10272,0.009508055
0.1028,0.009967885
0.10288,0.01035557
0.10296,0.0103982
0.10304,0.01004201
0.10312,0.009828833
0.1032,0.009202032
0.10328,0.008475592
0.10336,0.006912795
0.10344,0.005635895
0.10352,0.004765586
0.1036,0.00427501
0.10368,0.004107424
0.10376,0.004174281
0.10384,0.003303834
0.10392,0.0025948
0.104,0.002416737
0.10408,0.001361715
0.10416,0.0001557531
0.10424,-0.0002585211
0.10432,-0.0001094779
0.1044,-0.0003747329
0.10448,-0.001086551
0.10456,-0.001510388
0.10464,-0.00215825
0.10472,-0.002521327
0.1048,-0.002463257
0.10488,-0.002220824
0.10496,-0.002765465
0.10504,-0.003912265
0.10512,-0.004343627
0.1052,-0.004256717
0.10528,-0.004850064
0.10536,-0.004985522
0.10544,-0.004849299
0.10552,-0.004028631
0.1056,-0.003696997
0.10568,-0.004010348
0.10576,-0.004149385
0.10584,-0.004421811
0.10592,-0.004160735
0.106,-0.004242916
0.10608,-0.00434248
0.10616,-0.004664083
0.10624,-0.005202309
0.10632,-0.005525888
0.1064,-0.005500656
0.10648,-0.00572365
0.10656,-0.005632982
0.10664,-0.005524274
0.10672,-0.006140558
0.1068,-0.006515345
0.10688,-0.00652211
0.10696,-0.00680134
0.10704,-0.006707993
0.10712,-0.006854567
0.1072,-0.006453961
0.10728,-0.006335792
0.10736,-0.006498051
0.10744,-0.006602799
0.10752,-0.006927843
0.1076,-0.007406106
0.10768,-0.008258618
0.10776,-0.008377898
0.10784,-0.008297812
0.10792,-0.008144381
0.108,-0.008238662
0.10808,-0.008537488
0.10816,-0.009230804
0.10824,-0.01034545
0.10832,-0.01144256
0.1084,-0.01195899
0.10848,-0.01187222
0.10856,-0.01203393
0.10864,-0.01217758
0.10872,-0.0122812
0.1088,-0.01283253
0.10888,-0.01336169
0.10896,-0.0136497
0.10904,-0.0139197
0.10912,-0.01409935
0.1092,-0.01430039
0.10928,-0.01474136
0.10936,-0.0143788
0.10944,-0.01345936
0.10952,-0.01256068
0.1096,-0.01216743
0.10968,-0.01176957
0.10976,-0.01150185
0.10984,-0.0109578
0.10992,-0.01127056
0.11,-0.0123309
0.11008,-0.01269008
0.11016,-0.01297171
0.11024,-0.01228633
0.11032,-0.01208037
0.1104,-0.01244457
0.11048,-0.01234366
0.11056,-0.01172351
0.11064,-0.01061665
0.11072,-0.01021394
0.1108,-0.009875046
0.11088,-0.009565727
0.11096,-0.009466472
0.11104,-0.009611594
0.11112,-0.009943514
0.1112,-0.0100552
0.11128,-0.009218051
0.11136,-0.008821399
0.11144,-0.008958338
0.11152,-0.009565086
0.1116,-0.01025244
0.11168,-0.01050742
0.11176,-0.01094037
0.11184,-0.01108467
0.11192,-0.01120628
0.112,-0.0109761
0.11208,-0.01049421
0.11216,-0.009803422
0.11224,-0.01016575
0.11232,-0.01063388
0.1124,-0.01058391
0.11248,-0.009893169
0.11256,-0.009063937
0.11264,-0.008909691
0.11272,-0.008466111
0.1128,-0.008021372
0.11288,-0.007461751
0.11296,-0.007432519
0.11304,-0.007751555
0.11312,-0.007576496
0.1132,-0.007886737
0.11328,-0.007660531
0.11336,-0.006839407
0.11344,-0.005671516
0.11352,-0.005040545
0.1136,-0.004621614
0.11368,-0.003915112
0.11376,-0.003209188
0.11384,-0.002911679
0.11392,-0.003258195
0.114,-0.003066517
0.11408,-0.003137911
0.11416,-0.003094369
0.11424,-0.002889156
0.11432,-0.002211347
0.1144,-0.001727527
0.11448,-0.001310812
0.11456,-0.0007274419
0.11464,-0.0002151995
0.11472,0.0008489983
0.1148,0.000861292
0.11488,5.091471e-05
0.11496,-0.0002936211
0.11504,1.516459e-06
0.11512,0.0002823574
0.1152,0.0004912255
0.11528,0.0007508334
0.11536,0.001754025
0.11544,0.002334311
0.11552,0.002609073
0.1156,0.003164662
0.11568,0.003640627
0.11576,0.00407949
0.11584,0.003496357
0.11592,0.002900152
0.116,0.002331773
0.11608,0.002065951
0.11616,0.00173872
0.11624,0.001314619
0.11632,0.001369923
0.1164,0.001582046
0.11648,0.001302926
0.11656,0.001068972
0.11664,0.001174278
0.11672,0.001324511
0.1168,0.001193251
0.11688,0.001155273
0.11696,0.002211935
0.11704,0.003859572
0.11712,0.004977012
0.1172,0.005183531
0.11728,0.005752944
0.11736,0.006585044
0.11744,0.007020082
0.11752,0.007026377
0.1176,0.006938783
0.11768,0.006996029
0.11776,0.006983611
0.11784,0.007064872
0.11792,0.0072212
0.118,0.007171354
0.11808,0.007633262
0.11816,0.007770401
0.11824,0.008057697
0.11832,0.007890212
0.1184,0.00781742
0.11848,0.008359575
0.11856,0.009011366
0.11864,0.009417336
0.11872,0.009725964
0.1188,0.01046299
0.11888,0.01067728
0.11896,0.01079378
0.11904,0.01150053
0.11912,0.01279522
0.1192,0.01376692
0.11928,0.01431913
0.11936,0.01442485
0.11944,0.01407757
0.11952,0.01348228
0.1196,0.01285196
0.11968,0.01271487
0.11976,0.01291701
0.11984,0.01333977
0.11992,0.01420632
0.12,0.0142225
0.12008,0.01334086
0.12016,0.01346104
0.12024,0.01362068
0.12032,0.01370985
0.1204,0.01406331
0.12048,0.01412115
0.12056,0.01391603
0.12064,0.01407215
0.12072,0.01446797
0.1208,0.01461964
0.12088,0.01488852
0.12096,0.01485373
0.12104,0.01477608
0.12112,0.01506783
0.1212,0.01490958
0.12128,0.01477302
0.12136,0.013544
0.12144,0.01261182
0.12152,0.01226051
0.1216,0.01252195
0.12168,0.01252725
0.12176,0.01195342
0.12184,0.01121463
0.12192,0.010517
0.122,0.01047393
0.12208,0.01070742
0.12216,0.01126209
0.12224,0.01150936
0.12232,0.01181367
0.1224,0.0116607
0.12248,0.01084939
0.12256,0.0104303
0.12264,0.009981561
0.12272,0.00981686
0.1228,0.009341346
0.12288,0.008313516
0.12296,0.007686744
0.12304,0.007819193
0.12312,0.007920812
0.1232,0.007434932
0.12328,0.007002826
0.12336,0.006734041
0.12344,0.00700948
0.12352,0.007510195
0.1236,0.007358707
0.12368,0.006482781
0.12376,0.00601644
0.12384,0.005967503
0.12392,0.005381255
0.124,0.004809187
0.12408,0.00470112
0.12416,0.003880342
0.12424,0.003255538
0.12432,0.002962486
0.1244,0.002620985
0.12448,0.0019357
0.12456,0.001923159
0.12464,0.001553668
0.12472,0.001179582
0.1248,0.0008810753
0.12488,-0.0001144859
0.12496,-9.792844e-08
0.12504,-0.0003627302
0.12512,-0.001024264
0.1252,-0.001275217
0.12528,-0.00164158
0.12536,-0.00251637
0.12544,-0.002961033
0.12552,-0.002263994
0.1256,-0.001743732
0.12568,-0.001665285
0.12576,-0.001500021
0.12584,-0.001440026
0.12592,-0.001719366
0.126,-0.002973877
0.12608,-0.004289481
0.12616,-0.005526128
0.12624,-0.006698797
0.12632,-0.007400928
0.1264,-0.007769115
0.12648,-0.007646963
0.12656,-0.008004538
0.12664,-0.008685591
0.12672,-0.009264251
0.1268,-0.01058901
0.12688,-0.01100649
0.12696,-0.01039995
0.12704,-0.009623844
0.12712,-0.009344637
0.1272,-0.01001875
0.12728,-0.01019586
0.12736,-0.0106405
0.12744,-0.01153909
0.12752,-0.01170477
0.1276,-0.01161806
0.12768,-0.01164137
0.12776,-0.01129358
0.12784,-0.01109524
0.12792,-0.01060017
0.128,-0.01078927
0.12808,-0.01165529
0.12816,-0.01160948
0.12824,-0.0113912
0.12832,-0.01208671
0.1284,-0.01284299
0.12848,-0.0131697
0.12856,-0.01337176
0.12864,-0.01341144
0.12872,-0.0130948
0.1288,-0.01320852
0.12888,-0.0136274
0.12896,-0.01387968
0.12904,-0.01428664
0.12912,-0.01442
0.1292,-0.01441377
0.12928,-0.01426908
0.12936,-0.0140693
0.12944,-0.01464442
0.12952,-0.01433809
0.1296,-0.01429181
0.12968,-0.01440966
0.12976,-0.01453204
0.12984,-0.0145514
0.12992,-0.0145966
0.13,-0.01492284
0.13008,-0.01542508
0.13016,-0.01587734
0.13024,-0.01555873
0.13032,-0.0144277
0.1304,-0.01317931
0.13048,-0.01221567
0.13056,-0.01185511
0.13064,-0.01194272
0.13072,-0.01306285
0.1308,-0.01393197
0.13088,-0.01367641
0.13096,-0.01309823
0.13104,-0.01223234
0.13112,-0.01185342
0.1312,-0.01193438
0.13128,-0.01195667
0.13136,-0.01172796
0.13144,-0.01126323
0.13152,-0.01068139
0.1316,-0.01043617
0.13168,-0.01066528
0.13176,-0.01146916
0.13184,-0.01214524
0.13192,-0.01303008
0.132,-0.01353501
0.13208,-0.01327464
0.13216,-0.01335545
0.13224,-0.01328721
0.13232,-0.01303624
0.1324,-0.01330792
0.13248,-0.01377604
0.13256,-0.01357189
0.13264,-0.01359896
0.13272,-0.01297857
0.1328,-0.01240032
0.13288,-0.01182668
0.13296,-0.01050177
0.13304,-0.009647878
0.13312,-0.009218105
0.1332,-0.009521694
0.13328,-0.009895584
0.13336,-0.009976303
0.13344,-0.01005164
0.13352,-0.009507181
0.1336,-0.008562341
0.13368,-0.007942349
0.13376,-0.00747811
0.13384,-0.00728674
0.13392,-0.00752573
0.134,-0.007773658
0.13408,-0.007353961
0.13416,-0.007040337
0.13424,-0.006547021
0.13432,-0.005934218
0.1344,-0.00493552
0.13448,-0.003654624
0.13456,-0.003609011
0.13464,-0.003233169
0.13472,-0.002796615
0.1348,-0.00230456
0.13488,-0.001574143
0.13496,-0.0008557262
0.13504,-0.0008050209
0.13512,-0.0005265233
0.1352,-0.0001766828
0.13528,-0.0002590321
0.13536,-0.0004563644
0.13544,-0.0004602881
0.13552,-0.0002392936
0.1356,0.000403776
0.13568,0.0007157028
0.13576,0.00157932
0.13584,0.002740928
0.13592,0.003332463
0.136,0.003683052
0.13608,0.004264473
0.13616,0.004832671
0.13624,0.005706077
0.13632,0.006491167
0.1364,0.0070563
0.13648,0.007899387
0.13656,0.008695476
0.13664,0.008719222
0.13672,0.008703136
0.1368,0.00834327
0.13688,0.007752284
0.13696,0.007776195
0.13704,0.007665222
0.13712,0.007702385
0.1372,0.008064713
0.13728,0.008858674
0.13736,0.01007379
0.13744,0.01065984
0.13752,0.01065839
0.1376,0.01122926
0.13768,0.01151199
0.13776,0.01182309
0.13784,0.01242684
0.13792,0.01321027
0.138,0.01376117
0.13808,0.01418467
0.13816,0.01376744
0.13824,0.01298673
0.13832,0.01215257
0.1384,0.01165334
0.13848,0.01086982
0.13856,0.01052003
0.13864,0.01109681
0.13872,0.01169862
0.1388,0.01171662
0.13888,0.01231479
0.13896,0.01335461
0.13904,0.01415051
0.13912,0.01396557
0.1392,0.01374592
0.13928,0.01367481
0.13936,0.01325651
0.13944,0.01286703
0.13952,0.01286145
0.1396,0.01318324
0.13968,0.01362901
0.13976,0.01375519
0.13984,0.01395089
0.13992,0.01465092
0.14,0.01495124
0.14008,0.01454964
0.14016,0.01448381
0.14024,0.0140516
0.14032,0.01408618
0.1404,0.01351925
0.14048,0.01296741
0.14056,0.01232401
0.14064,0.01141151
0.14072,0.01174237
0.1408,0.01207529
0.14088,0.01196399
0.14096,0.01108198
0.14104,0.01034951
0.14112,0.01063878
0.1412,0.01098489
0.14128,0.01168459
0.14136,0.01226184
0.14144,0.01209403
0.14152,0.01125973
0.1416,0.01092908
0.14168,0.01029996
0.14176,0.009496036
0.14184,0.008452464
0.14192,0.007314189
0.142,0.006768628
0.14208,0.007156372
0.14216,0.008144463
0.14224,0.008549581
0.14232,0.008478517
0.1424,0.008657439
0.14248,0.008808143
0.14256,0.008810962
0.14264,0.00893278
0.14272,0.009129778
0.1428,0.008824242
0.14288,0.008355272
0.14296,0.007936019
0.14304,0.008289719
0.14312,0.009287932
0.1432,0.009746253
0.14328,0.01013716
0.14336,0.01021982
0.14344,0.009995246
0.14352,0.009288774
0.1436,0.008875895
0.14368,0.00853807
0.14376,0.008084243
0.14384,0.00770965
0.14392,0.008022262
0.144,0.007983679
0.14408,0.007984224
0.14416,0.007662672
0.14424,0.007111509
0.14432,0.00712452
0.1444,0.00699051
0.14448,0.00656371
0.14456,0.006800169
0.14464,0.006317709
0.14472,0.005395961
0.1448,0.004213208
0.14488,0.003092461
0.14496,0.002503745
0.14504,0.002768469
0.14512,0.003263874
0.1452,0.003355378
0.14528,0.003428468
0.14536,0.003264945
0.14544,0.003071207
0.14552,0.002748498
0.1456,0.001616294
0.14568,0.0002641052
0.14576,-0.0008060922
0.14584,-0.001726944
0.14592,-0.002211481
0.146,-0.002859207
0.14608,-0.002994141
0.14616,-0.002904812
0.14624,-0.003363933
0.14632,-0.004206686
0.1464,-0.004589209
0.14648,-0.004976471
0.14656,-0.00558102
0.14664,-0.005782132
0.14672,-0.006404036
0.1468,-0.006508091
0.14688,-0.005675782
0.14696,-0.005350164
0.14704,-0.005597078
0.14712,-0.006144379
0.1472,-0.006293571
0.14728,-0.00615359
0.14736,-0.006023806
0.14744,-0.005908936
0.14752,-0.006094351
0.1476,-0.006226085
0.14768,-0.006678327
0.14776,-0.007081582
0.14784,-0.007297562
0.14792,-0.007169538
0.148,-0.007486107
0.14808,-0.006778576
0.14816,-0.006251171
0.14824,-0.006616659
0.14832,-0.007346507
0.1484,-0.007617891
0.14848,-0.007861022
0.14856,-0.00835342
0.14864,-0.0086202
0.14872,-0.009587497
0.1488,-0.01007279
0.14888,-0.01043883
0.14896,-0.01033597
0.14904,-0.01113562
0.14912,-0.01223224
0.1492,-0.01300921
0.14928,-0.01381239
0.14936,-0.01425756
0.14944,-0.01528683
0.14952,-0.01620903
0.1496,-0.01636278
0.14968,-0.01557939
0.14976,-0.01540435
0.14984,-0.01623525
0.14992,-0.0163588
0.15,-0.01612333
0.15008,-0.01525514
0.15016,-0.01428029
0.15024,-0.01338786
0.15032,-0.0125656
0.1504,-0.01223111
0.15048,-0.01182296
0.15056,-0.01173459
0.15064,-0.01214147
0.15072,-0.01225179
0.1508,-0.01217408
0.15088,-0.01210075
0.15096,-0.0124137
0.15104,-0.01227977
0.15112,-0.01181023
0.1512,-0.01198883
0.15128,-0.01159541
0.15136,-0.01067477
0.15144,-0.01050804
0.15152,-0.01074333
0.1516,-0.01110994
0.15168,-0.01120355
0.15176,-0.01106739
0.15184,-0.01120225
0.15192,-0.01073328
0.152,-0.01082968
0.15208,-0.01119903
0.15216,-0.01165845
0.15224,-0.01123291
0.15232,-0.01107876
0.1524,-0.01143829
0.15248,-0.01172996
0.15256,-0.01178997
0.15264,-0.01138938
0.15272,-0.01104256
0.1528,-0.01069336
0.15288,-0.01113054
0.15296,-0.01128805
0.15304,-0.01130342
0.15312,-0.01077997
0.1532,-0.009860514
0.15328,-0.009042421
0.15336,-0.008667694
0.15344,-0.009114038
0.15352,-0.009780747
0.1536,-0.009623088
0.15368,-0.008936098
0.15376,-0.00831432
0.15384,-0.006981041
0.15392,-0.005779885
0.154,-0.004729184
0.15408,-0.004090901
0.15416,-0.003829572
0.15424,-0.00326316
0.15432,-0.002829223
0.1544,-0.001889702
0.15448,-0.001231655
0.15456,-0.001165036
0.15464,-0.001386742
0.15472,-0.001606068
0.1548,-0.001734788
0.15488,-0.001658438
0.15496,-0.00125329
0.15504,-0.0009979735
0.15512,-0.0009590578
0.1552,-0.001013098
0.15528,-0.0008395186
0.15536,-5.63217e-05
0.15544,0.0003435396
0.15552,0.0009260983
0.1556,0.001152148
0.15568,0.000362574
0.15576,-6.731703e-05
0.15584,-0.00035718
0.15592,-0.0001748219
0.156,5.708434e-05
0.15608,0.0006531861
0.15616,0.001448543
0.15624,0.001796224
0.15632,0.002827927
0.1564,0.003492396
0.15648,0.004233879
0.15656,0.004723165
0.15664,0.00511281
0.15672,0.005681315
0.1568,0.006079098
0.15688,0.00684744
0.15696,0.007037902
0.15704,0.007788178
0.15712,0.008794958
0.1572,0.009376575
0.15728,0.01070697
0.15736,0.01157972
0.15744,0.01178124
0.15752,0.01197363
0.1576,0.01215994
0.15768,0.01281484
0.15776,0.01348386
0.15784,0.0138682
0.15792,0.01452336
0.158,0.01424051
0.15808,0.01352215
0.15816,0.0133857
0.15824,0.01385093
0.15832,0.01390398
0.1584,0.01397625
0.15848,0.01400566
0.15856,0.01445662
0.15864,0.01489175
0.15872,0.015394
0.1588,0.01581381
0.15888,0.01659323
0.15896,0.0170607
0.15904,0.01637006
0.15912,0.01624339
0.1592,0.01649313
0.15928,0.01686234
0.15936,0.01703902
0.15944,0.01714937
0.15952,0.01713012
0.1596,0.01764344
0.15968,0.01849702
0.15976,0.01854032
0.15984,0.01868379
0.15992,0.01884588
0.16,0.01901688
0.16008,0.01936902
0.16016,0.01912517
0.16024,0.01855056
0.16032,0.01862343
0.1604,0.01865241
0.16048,0.01846388
0.16056,0.01798129
0.16064,0.01738094
0.16072,0.0169418
0.1608,0.01660274
0.16088,0.01630265
0.16096,0.0156943
0.16104,0.01522669
0.16112,0.01473155
0.1612,0.01461492
0.16128,0.01425967
0.16136,0.01398024
0.16144,0.01339708
0.16152,0.01328015
0.1616,0.01402213
0.16168,0.01343665
0.16176,0.01277578
0.16184,0.01203412
0.16192,0.01085598
0.162,0.01003735
0.16208,0.01015572
0.16216,0.01048392
0.16224,0.01042871
0.16232,0.0103497
0.1624,0.00986982
0.16248,0.009381891
0.16256,0.009206237
0.16264,0.009020847
0.16272,0.00812044
0.1628,0.007452349
0.16288,0.006682593
0.16296,0.006143272
0.16304,0.005683501
0.16312,0.005295899
0.1632,0.005461462
0.16328,0.006023576
0.16336,0.006509526
0.16344,0.006198778
0.16352,0.005761817
0.1636,0.005562635
0.16368,0.005200496
0.16376,0.004698554
0.16384,0.004689609
0.16392,0.004268474
0.164,0.00373546
0.16408,0.003471583
0.16416,0.003308591
0.16424,0.002891719
0.16432,0.002390434
0.1644,0.002074667
0.16448,0.001825009
0.16456,0.001803447
0.16464,0.001433732
0.16472,0.0004579547
0.1648,-5.683587e-05
0.16488,-0.0004479867
0.16496,-0.001357177
0.16504,-0.002210496
0.16512,-0.002530199
0.1652,-0.002348042
0.16528,-0.002782435
0.16536,-0.002658292
0.16544,-0.002305154
0.16552,-0.002217777
0.1656,-0.001958908
0.16568,-0.001715919
0.16576,-0.001324495
0.16584,-0.001465908
0.16592,-0.001545011
0.166,-0.001744794
0.16608,-0.001812227
0.16616,-0.002051233
0.16624,-0.00248966
0.16632,-0.002343754
0.1664,-0.002625796
0.16648,-0.002769573
0.16656,-0.002797961
0.16664,-0.003541085
0.16672,-0.004808771
0.1668,-0.006212556
0.16688,-0.007118764
0.16696,-0.00808476
0.16704,-0.008644897
0.16712,-0.009254472
0.1672,-0.009562411
0.16728,-0.009586374
0.16736,-0.01018234
0.16744,-0.01066584
0.16752,-0.01074162
0.1676,-0.01046038
0.16768,-0.01046526
0.16776,-0.01052825
0.16784,-0.009852885
0.16792,-0.009887546
0.168,-0.01025218
0.16808,-0.01026399
0.16816,-0.01041084
0.16824,-0.01067482
0.16832,-0.01042619
0.1684,-0.01051684
0.16848,-0.01045122
0.16856,-0.009875141
0.16864,-0.0102822
0.16872,-0.01014083
0.1688,-0.009588001
0.16888,-0.009657185
0.16896,-0.01027283
0.16904,-0.01139937
0.16912,-0.01222656
0.1692,-0.01255979
0.16928,-0.01207248
0.16936,-0.01228436
0.16944,-0.01316769
0.16952,-0.01348668
0.1696,-0.01405607
0.16968,-0.01388905
0.16976,-0.01343624
0.16984,-0.01348057
0.16992,-0.01399139
0.17,-0.01403263
0.17008,-0.01338776
0.17016,-0.01328384
0.17024,-0.01334834
0.17032,-0.013603
0.1704,-0.01413483
0.17048,-0.01455733
0.17056,-0.014843
0.17064,-0.01495713
0.17072,-0.01501536
0.1708,-0.01482033
0.17088,-0.01437049
0.17096,-0.01408572
0.17104,-0.01400972
0.17112,-0.01415446
0.1712,-0.01463898
0.17128,-0.01544499
0.17136,-0.0153692
0.17144,-0.0149635
0.17152,-0.01459691
0.1716,-0.01434847
0.17168,-0.01411652
0.17176,-0.01339724
0.17184,-0.01291048
0.17192,-0.01303973
0.172,-0.01305341
0.17208,-0.01279521
0.17216,-0.01280506
0.17224,-0.01224591
0.17232,-0.01155708
0.1724,-0.01081537
0.17248,-0.009942585
0.17256,-0.009048145
0.17264,-0.008920054
0.17272,-0.008908084
0.1728,-0.008850905
0.17288,-0.008353299
0.17296,-0.007926781
0.17304,-0.007464167
0.17312,-0.007021995
0.1732,-0.006770546
0.17328,-0.007077309
0.17336,-0.007150103
0.17344,-0.007141962
0.17352,-0.007187927
0.1736,-0.006687365
0.17368,-0.006066416
0.17376,-0.006131521
0.17384,-0.006651231
0.17392,-0.006819271
0.174,-0.006638475
0.17408,-0.0063535
0.17416,-0.006276605
0.17424,-0.00628128
0.17432,-0.005945585
0.1744,-0.005211427
0.17448,-0.004476571
0.17456,-0.004151905
0.17464,-0.004649254
0.17472,-0.00504214
0.1748,-0.005276372
0.17488,-0.004861007
0.17496,-0.004931499
0.17504,-0.005500619
0.17512,-0.004884574
0.1752,-0.00299619
0.17528,-0.001569293
0.17536,-0.0008363024
0.17544,-0.0005153575
0.17552,6.825688e-05
0.1756,0.0001538545
0.17568,-0.0002343852
0.17576,6.125912e-05
0.17584,0.0006098904
0.17592,0.001904596
0.176,0.002227498
0.17608,0.002875659
0.17616,0.004039108
0.17624,0.004887678
0.17632,0.005742682
0.1764,0.006448295
0.17648,0.006831928
0.17656,0.007373415
0.17664,0.008368265
0.17672,0.008774053
0.1768,0.008957998
0.17688,0.009279417
0.17696,0.009588638
0.17704,0.009956066
0.17712,0.009741053
0.1772,0.009618334
0.17728,0.009939808
0.17736,0.01045985
0.17744,0.01098885
0.17752,0.01122421
0.1776,0.01155382
0.17768,0.01168909
0.17776,0.01182673
0.17784,0.01172979
0.17792,0.01194134
0.178,0.01217017
0.17808,0.01154472
0.17816,0.01079459
0.17824,0.01008826
0.17832,0.009379406
0.1784,0.009749742
0.17848,0.01016266
0.17856,0.009999659
0.17864,0.01040897
0.17872,0.0106768
0.1788,0.01069598
0.17888,0.01115704
0.17896,0.01194771
0.17904,0.01316383
0.17912,0.01381316
0.1792,0.01382729
0.17928,0.0132908
0.17936,0.01300538
0.17944,0.01304708
0.17952,0.01319214
0.1796,0.01349017
0.17968,0.01387954
0.17976,0.01443242
0.17984,0.01464751
0.17992,0.01472835
0.18,0.01498938
0.18008,0.01518115
0.18016,0.01522935
0.18024,0.01493332
0.18032,0.01490027
0.1804,0.01524
0.18048,0.01525281
0.18056,0.01568819
0.18064,0.01566864
0.18072,0.01501513
0.1808,0.01452318
0.18088,0.0145263
0.18096,0.0140451
0.18104,0.01317054
0.18112,0.01212079
0.1812,0.01041162
0.18128,0.009310917
0.18136,0.008881347
0.18144,0.007935986
0.18152,0.007003075
0.1816,0.006478048
0.18168,0.006521435
0.18176,0.006907857
0.18184,0.006940838
0.18192,0.007687734
0.182,0.008421496
0.18208,0.008832791
0.18216,0.009330882
0.18224,0.009807332
0.18232,0.009379618
0.1824,0.008836865
0.18248,0.008476728
0.18256,0.007697758
0.18264,0.007224642
0.18272,0.00743084
0.1828,0.007559064
0.18288,0.007860635
0.18296,0.008357042
0.18304,0.009409023
0.18312,0.009647254
0.1832,0.009818349
0.18328,0.009456219
0.18336,0.008389016
0.18344,0.007548914
0.18352,0.007059969
0.1836,0.007165384
0.18368,0.007623532
0.18376,0.007605657
0.18384,0.007276126
0.18392,0.006616635
0.184,0.005738316
0.18408,0.005092255
0.18416,0.004327145
0.18424,0.003866693
0.18432,0.003749378
0.1844,0.003923267
0.18448,0.004478302
0.18456,0.004879112
0.18464,0.004745479
0.18472,0.003927161
0.1848,0.003318211
0.18488,0.002823976
0.18496,0.002291598
0.18504,0.002016005
0.18512,0.001556069
0.1852,0.00102463
0.18528,0.0007409859
0.18536,0.0008546099
0.18544,0.0009992803
0.18552,0.0005102466
0.1856,-0.0002522302
0.18568,-0.0006814458
0.18576,-0.0006337113
0.18584,-0.0006862518
0.18592,-0.001471383
0.186,-0.002060906
0.18608,-0.002557608
0.18616,-0.003203119
0.18624,-0.003667137
0.18632,-0.003871419
0.1864,-0.003833047
0.18648,-0.004322801
0.18656,-0.004393561
0.18664,-0.004053803
0.18672,-0.003068128
0.1868,-0.002641842
0.18688,-0.002668236
0.18696,-0.002270211
0.18704,-0.002027196
0.18712,-0.001885727
0.1872,-0.002501923
0.18728,-0.0033966
0.18736,-0.003444374
0.18744,-0.003699236
0.18752,-0.004369902
0.1876,-0.004769505
0.18768,-0.005314044
0.18776,-0.00622599
0.18784,-0.006595442
0.18792,-0.00724307
0.188,-0.007375551
0.18808,-0.007966984
0.18816,-0.009039304
0.18824,-0.009721903
0.18832,-0.009862876
0.1884,-0.01011217
0.18848,-0.01089993
0.18856,-0.01191568
0.18864,-0.01288185
0.18872,-0.01310401
0.1888,-0.01299173
0.18888,-0.01280739
0.18896,-0.01290041
0.18904,-0.0130543
0.18912,-0.01255917
0.1892,-0.01216353
0.18928,-0.01198661
0.18936,-0.01237184
0.18944,-0.01271555
0.18952,-0.0126059
0.1896,-0.01262009
0.18968,-0.01304326
0.18976,-0.01349577
0.18984,-0.01320971
0.18992,-0.01279938
0.19,-0.01232522
0.19008,-0.01228001
0.19016,-0.01225243
0.19024,-0.01183402
0.19032,-0.01140115
0.1904,-0.01107277
0.19048,-0.01046872
0.19056,-0.009729083
0.19064,-0.009749253
0.19072,-0.009489906
0.1908,-0.009883
0.19088,-0.01021181
0.19096,-0.01037799
0.19104,-0.01097042
0.19112,-0.01188972
0.1912,-0.01186106
0.19128,-0.0111991
0.19136,-0.01027901
0.19144,-0.01016558
0.19152,-0.0101281
0.1916,-0.009619281
0.19168,-0.009753836
0.19176,-0.009949236
0.19184,-0.01027041
0.19192,-0.01075573
0.192,-0.01134491
0.19208,-0.01132141
0.19216,-0.01142992
0.19224,-0.01142735
0.19232,-0.01066174
0.1924,-0.01037704
0.19248,-0.01058587
0.19256,-0.01048731
0.19264,-0.009963617
0.19272,-0.008959504
0.1928,-0.007854146
0.19288,-0.007388846
0.19296,-0.007099574
0.19304,-0.006890787
0.19312,-0.006654982
0.1932,-0.006722584
0.19328,-0.005983549
0.19336,-0.005351032
0.19344,-0.005430729
0.19352,-0.005686139
0.1936,-0.005315388
0.19368,-0.004372335
0.19376,-0.00350834
0.19384,-0.00315703
0.19392,-0.002769318
0.194,-0.002246191
0.19408,-0.001567213
0.19416,-0.0008346239
0.19424,-0.0003893387
0.19432,0.0004573269
0.1944,0.0008255692
0.19448,0.001285204
0.19456,0.001366631
0.19464,0.001270245
0.19472,0.0008327262
0.1948,0.0006915064
0.19488,0.0002724039
0.19496,-0.0003288849
0.19504,-0.0002139485
0.19512,-0.0002406831
0.1952,0.000181129
0.19528,0.001022982
0.19536,0.002353623
0.19544,0.003597071
0.19552,0.003456545
0.1956,0.00375081
0.19568,0.003602872
0.19576,0.003179574
0.19584,0.002762022
0.19592,0.002446384
0.196,0.002577019
0.19608,0.002292297
0.19616,0.002108945
0.19624,0.001883743
0.19632,0.00222168
0.1964,0.002951246
0.19648,0.004022035
0.19656,0.004241523
0.19664,0.004243843
0.19672,0.004291658
0.1968,0.003719354
0.19688,0.003656514
0.19696,0.003838861
0.19704,0.004119713
0.19712,0.00478749
0.1972,0.005524192
0.19728,0.005565979
0.19736,0.005180454
0.19744,0.005005383
0.19752,0.005636466
0.1976,0.006482355
0.19768,0.00743989
0.19776,0.008436119
0.19784,0.008755236
0.19792,0.009239483
0.198,0.009720308
0.19808,0.01002324
0.19816,0.01041914
0.19824,0.01064647
0.19832,0.01080256
0.1984,0.01070926
0.19848,0.0103109
0.19856,0.009904587
0.19864,0.009965753
0.19872,0.01056228
0.1988,0.01139188
0.19888,0.0125193
0.19896,0.01308166
0.19904,0.01326353
0.19912,0.01290624
0.1992,0.01295348
0.19928,0.01285283
0.19936,0.01332841
0.19944,0.01365485
0.19952,0.01374672
0.1996,0.01399641
0.19968,0.01417254
0.19976,0.01407517
0.19984,0.0137536
0.19992,0.01359241
0.2,0.01328879
0.20008,0.01227138
0.20016,0.01141532
0.20024,0.01155367
0.20032,0.01142
0.2004,0.01108144
0.20048,0.01105415
0.20056,0.01110105
0.20064,0.01119258
0.20072,0.01131597
0.2008,0.01162506
0.20088,0.01146955
0.20096,0.01111089
0.20104,0.01076189
0.20112,0.01024928
0.2012,0.0100583
0.20128,0.009576881
0.20136,0.009337952
0.20144,0.009143164
0.20152,0.009361661
0.2016,0.01001678
0.20168,0.01085604
0.20176,0.01196636
0.20184,0.01182731
0.20192,0.01156376
0.202,0.01158814
0.20208,0.01162324
0.20216,0.01115596
0.20224,0.01035497
0.20232,0.009864439
0.2024,0.009822761
0.20248,0.009621951
0.20256,0.009226656
0.20264,0.007999792
0.20272,0.007158873
0.2028,0.007169559
0.20288,0.007616462
0.20296,0.007966562
0.20304,0.008221357
0.20312,0.007934053
0.2032,0.007361605
0.20328,0.006787909
0.20336,0.006109278
0.20344,0.005679755
0.20352,0.005617119
0.2036,0.005710336
0.20368,0.005535319
0.20376,0.005124822
0.20384,0.005094894
0.20392,0.00482001
0.204,0.004807495
0.20408,0.00486401
0.20416,0.005250316
0.20424,0.004751792
0.20432,0.003971929
0.2044,0.003453458
0.20448,0.002728602
0.20456,0.002632345
0.20464,0.002728443
0.20472,0.002006067
0.2048,0.001009042
0.20488,0.0003164196
0.20496,-0.0003869395
0.20504,-0.001464958
0.20512,-0.002450692
0.2052,-0.003084365
0.20528,-0.003705442
0.20536,-0.004236871
0.20544,-0.004770475
0.20552,-0.005343901
0.2056,-0.005757047
0.20568,-0.006099361
0.20576,-0.00605159
0.20584,-0.005558311
0.20592,-0.004739363
0.206,-0.004415193
0.20608,-0.004737855
0.20616,-0.004515958
0.20624,-0.004388956
0.20632,-0.004630386
0.2064,-0.004489411
0.20648,-0.004658249
0.20656,-0.004928165
0.20664,-0.005228791
0.20672,-0.005586077
0.2068,-0.005523008
0.20688,-0.005807023
0.20696,-0.005762976
0.20704,-0.005866392
0.20712,-0.00660088
0.2072,-0.007988755
0.20728,-0.00924274
0.20736,-0.009995501
0.20744,-0.01040883
0.20752,-0.01058607
0.2076,-0.01020171
0.20768,-0.01001988
0.20776,-0.01090018
0.20784,-0.01168494
0.20792,-0.01213286
0.208,-0.0125368
0.20808,-0.01268883
0.20816,-0.01182973
0.20824,-0.01147379
0.20832,-0.01142919
0.2084,-0.01135878
0.20848,-0.01166993
0.20856,-0.01240341
0.20864,-0.01262081
0.20872,-0.01233904
0.2088,-0.01319999
0.20888,-0.01410036
0.20896,-0.01524221
0.20904,-0.0158518
0.20912,-0.01556766
0.2092,-0.01592808
0.20928,-0.01649631
0.20936,-0.01652171
0.20944,-0.0160675
0.20952,-0.01503679
0.2096,-0.01505185
0.20968,-0.0151677
0.20976,-0.01554659
0.20984,-0.01563637
0.20992,-0.01524335
0.21,-0.01480361
0.21008,-0.01475393
0.21016,-0.0148965
0.21024,-0.01429943
0.21032,-0.01387669
0.2104,-0.0135583
0.21048,-0.01311069
0.21056,-0.01285123
0.21064,-0.01236924
0.21072,-0.0121408
0.2108,-0.01170639
0.21088,-0.01158114
0.21096,-0.01120728
0.21104,-0.01052832
0.21112,-0.0100524
0.2112,-0.01026405
0.21128,-0.01096681
0.21136,-0.0114023
0.21144,-0.01211595
0.21152,-0.01219937
0.2116,-0.01154108
0.21168,-0.01093294
0.21176,-0.01054006
0.21184,-0.01108705
0.21192,-0.01155418
0.212,-0.0114122
0.21208,-0.01112805
0.21216,-0.01005747
0.21224,-0.009354311
0.21232,-0.008580407
0.2124,-0.007704658
0.21248,-0.006921251
0.21256,-0.00566924
0.21264,-0.005069576
0.21272,-0.004669492
0.2128,-0.004841049
0.21288,-0.00479147
0.21296,-0.00489828
0.21304,-0.005321671
0.21312,-0.00606452
0.2132,-0.006584523
0.21328,-0.006799818
0.21336,-0.006504152
0.21344,-0.005675882
0.21352,-0.0051167
0.2136,-0.004765182
0.21368,-0.00495121
0.21376,-0.005210809
0.21384,-0.005635909
0.21392,-0.005983426
0.214,-0.005596059
0.21408,-0.005532463
0.21416,-0.005583633
0.21424,-0.005435984
0.21432,-0.005594233
0.2144,-0.005173624
0.21448,-0.004067486
0.21456,-0.00301505
0.21464,-0.002721446
0.21472,-0.002919564
0.2148,-0.003000831
0.21488,-0.00301718
0.21496,-0.002399117
0.21504,-0.002252205
0.21512,-0.002251433
0.2152,-0.002069581
0.21528,-0.00146391
0.21536,-0.0009652436
0.21544,-0.0003544863
0.21552,5.73576e-05
0.2156,0.0008702236
0.21568,0.001978128
0.21576,0.002113827
0.21584,0.001838416
0.21592,0.00159347
0.216,0.00231909
0.21608,0.003011987
0.21616,0.003511833
0.21624,0.003788486
0.21632,0.003607347
0.2164,0.003528288
0.21648,0.003554297
0.21656,0.004039278
0.21664,0.00387442
0.21672,0.003093795
0.2168,0.002511177
0.21688,0.002613288
0.21696,0.003261233
0.21704,0.003437855
0.21712,0.004041118
0.2172,0.004839393
0.21728,0.005271104
0.21736,0.006487394
0.21744,0.007301176
0.21752,0.007887866
0.2176,0.008708115
0.21768,0.009843309
0.21776,0.01089553
0.21784,0.01101587
0.21792,0.01089886
0.218,0.01113396
0.21808,0.01116386
0.21816,0.01148417
0.21824,0.01180626
0.21832,0.01216747
0.2184,0.01189736
0.21848,0.01182914
0.21856,0.01244576
0.21864,0.0124459
0.21872,0.01231083
0.2188,0.0131648
0.21888,0.0136018
0.21896,0.01328935
0.21904,0.01338318
0.21912,0.01349175
0.2192,0.01335278
0.21928,0.01306597
0.21936,0.01276484
0.21944,0.01252464
0.21952,0.01250557
0.2196,0.01188749
0.21968,0.01147565
0.21976,0.01119886
0.21984,0.01074949
0.21992,0.0109708
0.22,0.01146264
0.22008,0.01170368
0.22016,0.01166259
0.22024,0.01133339
0.22032,0.01121709
0.2204,0.01093308
0.22048,0.01015433
0.22056,0.008973183
0.22064,0.008477802
0.22072,0.008867368
0.2208,0.009032914
0.22088,0.009620965
0.22096,0.01028748
0.22104,0.01078188
0.22112,0.01147344
0.2212,0.01152828
0.22128,0.01158214
0.22136,0.01125209
0.22144,0.01096246
0.22152,0.01094825
0.2216,0.01034043
0.22168,0.009551673
0.22176,0.008845079
0.22184,0.008785057
0.22192,0.009550623
0.222,0.01117097
0.22208,0.01222667
0.22216,0.01220609
0.22224,0.01119554
0.22232,0.009716184
0.2224,0.008400094
0.22248,0.007801416
0.22256,0.007668028
0.22264,0.007690047
0.22272,0.007573118
0.2228,0.007403389
0.22288,0.00729568
0.22296,0.007314481
0.22304,0.007581865
0.22312,0.007960964
0.2232,0.008441698
0.22328,0.008861147
0.22336,0.00980017
0.22344,0.01050853
0.22352,0.01008899
0.2236,0.009832678
0.22368,0.009400891
0.22376,0.009099071
0.22384,0.009100114
0.22392,0.008197523
0.224,0.006593019
0.22408,0.004561235
0.22416,0.003236705
0.22424,0.00279272
0.22432,0.002803968
0.2244,0.002750771
0.22448,0.002914631
0.22456,0.003735339
0.22464,0.00425309
0.22472,0.003698719
0.2248,0.002967709
0.22488,0.003236793
0.22496,0.002694745
0.22504,0.00304341
0.22512,0.004002427
0.2252,0.003630391
0.22528,0.003895908
0.22536,0.003703503
0.22544,0.003477311
0.22552,0.00266225
0.2256,0.002600743
0.22568,0.003094268
0.22576,0.003538212
0.22584,0.003822155
0.22592,0.003863327
0.226,0.003991781
0.22608,0.003628395
0.22616,0.003155618
0.22624,0.002986332
0.22632,0.002552787
0.2264,0.001376399
0.22648,0.000467849
0.22656,-0.0002504371
0.22664,-0.001290542
0.22672,-0.002620426
0.2268,-0.003358777
0.22688,-0.004219614
0.22696,-0.005075559
0.22704,-0.005422313
0.22712,-0.005563884
0.2272,-0.005297061
0.22728,-0.005720102
0.22736,-0.006340625
0.22744,-0.006676734
0.22752,-0.00762336
0.2276,-0.008090716
0.22768,-0.008631607
0.22776,-0.008626333
0.22784,-0.008517982
0.22792,-0.008609857
0.228,-0.008321557
0.22808,-0.007977402
0.22816,-0.007225996
0.22824,-0.006689905
0.22832,-0.006581943
0.2284,-0.006410137
0.22848,-0.006948459
0.22856,-0.007359982
0.22864,-0.007969605
0.22872,-0.008258782
0.2288,-0.008614775
0.22888,-0.008985907
0.22896,-0.008668865
0.22904,-0.008840539
0.22912,-0.008344882
0.2292,-0.007926791
0.22928,-0.00810433
0.22936,-0.008313676
0.22944,-0.008781792
0.22952,-0.008585357
0.2296,-0.008743954
0.22968,-0.009355564
0.22976,-0.009867161
0.22984,-0.009832888
0.22992,-0.01009731
0.23,-0.01091785
0.23008,-0.01114525
0.23016,-0.01159828
0.23024,-0.01176023
0.23032,-0.01185501
0.2304,-0.01176217
0.23048,-0.0117628
0.23056,-0.01198039
0.23064,-0.0121931
0.23072,-0.01278602
0.2308,-0.01281122
0.23088,-0.01314328
0.23096,-0.01385486
0.23104,-0.01443727
0.23112,-0.01463749
0.2312,-0.01379495
0.23128,-0.01275132
0.23136,-0.01212107
0.23144,-0.01186635
0.23152,-0.01206121
0.2316,-0.01067806
0.23168,-0.009909004
0.23176,-0.009547435
0.23184,-0.009459404
0.23192,-0.009406404
0.232,-0.009451961
0.23208,-0.009847649
0.23216,-0.01009868
0.23224,-0.01008906
0.23232,-0.009536128
0.2324,-0.00913848
0.23248,-0.008381575
0.23256,-0.008025677
0.23264,-0.008271608
0.23272,-0.008328074
0.2328,-0.008829046
0.23288,-0.009351387
0.23296,-0.009820304
0.23304,-0.009576621
0.23312,-0.008477479
0.2332,-0.007430171
0.23328,-0.006237937
0.23336,-0.005184378
0.23344,-0.005052084
0.23352,-0.005784979
0.2336,-0.005812862
0.23368,-0.005502791
0.23376,-0.005359465
0.23384,-0.005000451
0.23392,-0.004664188
0.234,-0.004635916
0.23408,-0.004568841
0.23416,-0.00411413
0.23424,-0.003766738
0.23432,-0.003618788
0.2344,-0.003706555
0.23448,-0.003977365
0.23456,-0.00392254
0.23464,-0.003126727
0.23472,-0.002356948
0.2348,-0.002165513
0.23488,-0.002550197
0.23496,-0.003104459
0.23504,-0.004019298
0.23512,-0.004522787
0.2352,-0.0048182
0.23528,-0.00550513
0.23536,-0.005999462
0.23544,-0.006079474
0.23552,-0.00564051
0.2356,-0.004976556
0.23568,-0.004195809
0.23576,-0.003405864
0.23584,-0.002685322
0.23592,-0.001681527
0.236,-0.0006889538
0.23608,-0.0006882701
0.23616,-0.001190238
0.23624,-0.001316922
0.23632,-0.0009893796
0.2364,-0.0006997641
0.23648,7.549887e-05
0.23656,0.001048696
0.23664,0.001753586
0.23672,0.002160859
0.2368,0.002017295
0.23688,0.002010131
0.23696,0.00169308
0.23704,0.002369124
0.23712,0.003350763
0.2372,0.004218485
0.23728,0.004502826
0.23736,0.003802053
0.23744,0.00339834
0.23752,0.004145383
0.2376,0.004660877
0.23768,0.005270331
0.23776,0.005254806
0.23784,0.005107261
0.23792,0.005060849
0.238,0.005382385
0.23808,0.005398837
0.23816,0.00530829
0.23824,0.006058975
0.23832,0.006489918
0.2384,0.006048076
0.23848,0.005989238
0.23856,0.006260663
0.23864,0.007058313
0.23872,0.007382072
0.2388,0.007765551
0.23888,0.008017956
0.23896,0.008004086
0.23904,0.008568875
0.23912,0.009379409
0.2392,0.009490226
0.23928,0.009311707
0.23936,0.009151571
0.23944,0.009299164
0.23952,0.009233614
0.2396,0.008947165
0.23968,0.008634099
0.23976,0.008070045
0.23984,0.007281517
0.23992,0.00681874
0.24,0.006888487
0.24008,0.00690929
0.24016,0.007161258
0.24024,0.007282602
0.24032,0.007361355
0.2404,0.008146049
0.24048,0.008610075
0.24056,0.009229818
0.24064,0.009942295
0.24072,0.01018259
0.2408,0.01051372
0.24088,0.01091935
0.24096,0.01109999
0.24104,0.01116655
0.24112,0.01094931
0.2412,0.01050297
0.24128,0.01057737
0.24136,0.0106656
0.24144,0.01088254
0.24152,0.01180332
0.2416,0.01170322
0.24168,0.01113849
0.24176,0.01079664
0.24184,0.01127415
0.24192,0.01202639
0.242,0.01237471
0.24208,0.01309422
0.24216,0.01322824
0.24224,0.01287579
0.24232,0.01246248
0.2424,0.01240336
0.24248,0.01234978
0.24256,0.01199877
0.24264,0.01155366
0.24272,0.01057099
0.2428,0.009439413
0.24288,0.009349299
0.24296,0.009387897
0.24304,0.008941247
0.24312,0.008321484
0.2432,0.007990309
0.24328,0.007271447
0.24336,0.006711626
0.24344,0.006683921
0.24352,0.006668611
0.2436,0.006237641
0.24368,0.005440599
0.24376,0.004693818
0.24384,0.004067921
0.24392,0.003680991
0.244,0.003470753
0.24408,0.003734906
0.24416,0.003485107
0.24424,0.003685942
0.24432,0.003322737
0.2444,0.002458785
0.24448,0.002343115
0.24456,0.002806759
0.24464,0.002678887
0.24472,0.001930314
0.2448,0.001179102
0.24488,0.0002144238
0.24496,-0.0004489897
0.24504,-0.001198913
0.24512,-0.001247275
0.2452,-0.00128381
0.24528,-0.001340334
0.24536,-0.001168957
0.24544,-0.001430767
0.24552,-0.001846848
0.2456,-0.002065046
0.24568,-0.002296427
0.24576,-0.002723276
0.24584,-0.003407289
0.24592,-0.003725537
0.246,-0.003724823
0.24608,-0.00374945
0.24616,-0.004464877
0.24624,-0.00547881
0.24632,-0.005275385
0.2464,-0.005052307
0.24648,-0.005215399
0.24656,-0.004828874
0.24664,-0.004512449
0.24672,-0.00414367
0.2468,-0.004408342
0.24688,-0.005384937
0.24696,-0.00606484
0.24704,-0.006807551
0.24712,-0.006937652
0.2472,-0.007507585
0.24728,-0.007141083
0.24736,-0.007318642
0.24744,-0.007913113
0.24752,-0.008571118
0.2476,-0.009383747
0.24768,-0.009922099
0.24776,-0.01060307
0.24784,-0.01080559
0.24792,-0.01173869
0.248,-0.01251563
0.24808,-0.01293411
0.24816,-0.01271224
0.24824,-0.01257815
0.24832,-0.01220993
0.2484,-0.01190263
0.24848,-0.01263354
0.24856,-0.01362132
0.24864,-0.01395392
0.24872,-0.0149305
0.2488,-0.01592181
0.24888,-0.01645934
0.24896,-0.01711927
0.24904,-0.01734959
0.24912,-0.01693111
0.2492,-0.01619419
0.24928,-0.01622348
0.24936,-0.01580316
0.24944,-0.0161148
0.24952,-0.01629166
0.2496,-0.01618052
0.24968,-0.01623922
0.24976,-0.0164442
0.24984,-0.01652073
0.24992,-0.01604156
0.25,-0.01579089
0.25008,-0.01600388
0.25016,-0.01630797
0.25024,-0.01658196
0.25032,-0.0167063
0.2504,-0.0168324
0.25048,-0.01687243
0.25056,-0.01665007
0.25064,-0.01577059
0.25072,-0.014878
0.2508,-0.01460544
0.25088,-0.0139988
0.25096,-0.01370348
0.25104,-0.01386544
0.25112,-0.01442614
0.2512,-0.01496706
0.25128,-0.01521482
0.25136,-0.01525286
0.25144,-0.01561234
0.25152,-0.01567592
0.2516,-0.01495322
0.25168,-0.01442998
0.25176,-0.0144816
0.25184,-0.01430663
0.25192,-0.01405785
0.252,-0.01328848
0.25208,-0.0122969
0.25216,-0.01237804
0.25224,-0.01250579
0.25232,-0.01210753
0.2524,-0.01159357
0.25248,-0.01173121
0.25256,-0.01179937
0.25264,-0.01136712
0.25272,-0.01061523
0.2528,-0.01040775
0.25288,-0.01018621
0.25296,-0.009489133
0.25304,-0.008596067
0.25312,-0.007968999
0.2532,-0.007149089
0.25328,-0.00619493
0.25336,-0.005526464
0.25344,-0.004952458
0.25352,-0.005075462
0.2536,-0.004629765
0.25368,-0.00383836
0.25376,-0.003412689
0.25384,-0.002951501
0.25392,-0.002666247
0.254,-0.002768507
0.25408,-0.002999553
0.25416,-0.002397618
0.25424,-0.00142432
0.25432,-0.0009738441
0.2544,-0.001344381
0.25448,-0.001284425
0.25456,-0.001026143
0.25464,-0.0007220142
0.25472,-0.000324218
0.2548,-0.0002454637
0.25488,-0.0001011225
0.25496,0.0003721305
0.25504,0.001453077
0.25512,0.002465181
0.2552,0.003289034
0.25528,0.003342535
0.25536,0.002889212
0.25544,0.00349149
0.25552,0.003952408
0.2556,0.003902577
0.25568,0.004034644
0.25576,0.00458784
0.25584,0.005184536
0.25592,0.005182392
0.256,0.00557795
0.25608,0.006233791
0.25616,0.006734064
0.25624,0.007469601
0.25632,0.008312173
0.2564,0.008808346
0.25648,0.00900041
0.25656,0.009241588
0.25664,0.00975935
0.25672,0.01015075
0.2568,0.01040999
0.25688,0.01071775
0.25696,0.01103815
0.25704,0.01149112
0.25712,0.01221761
0.2572,0.01255052
0.25728,0.01252994
0.25736,0.0128227
0.25744,0.01338345
0.25752,0.01376285
0.2576,0.01399518
0.25768,0.01393637
0.25776,0.01437455
0.25784,0.01470812
0.25792,0.01537779
0.258,0.01537256
0.25808,0.01568602
0.25816,0.01664102
0.25824,0.0181166
0.25832,0.01894775
0.2584,0.0186499
0.25848,0.01838822
0.25856,0.01863148
0.25864,0.01867114
0.25872,0.01823892
0.2588,0.01754201
0.25888,0.01703578
0.25896,0.01683672
0.25904,0.01665398
0.25912,0.01672881
0.2592,0.0162602
0.25928,0.01624548
0.25936,0.01588281
0.25944,0.01515337
0.25952,0.01512773
0.2596,0.01505779
0.25968,0.01424381
0.25976,0.01333221
0.25984,0.01327269
0.25992,0.01241528
0.26,0.01217866
0.26008,0.0127154
0.26016,0.01287971
0.26024,0.01362839
0.26032,0.01415532
0.2604,0.01403499
0.26048,0.01328285
0.26056,0.01225874
0.26064,0.01185899
0.26072,0.0117444
0.2608,0.01103797
0.26088,0.01071879
0.26096,0.01035548
0.26104,0.01022381
0.26112,0.01036796
0.2612,0.01043634
0.26128,0.01070512
0.26136,0.01091082
0.26144,0.01051521
0.26152,0.01038287
0.2616,0.01064511
0.26168,0.0107598
0.26176,0.01099927
0.26184,0.0110872
0.26192,0.01121762
0.262,0.01154271
0.26208,0.01151547
0.26216,0.01038734
0.26224,0.009002675
0.26232,0.00813463
0.2624,0.007918384
0.26248,0.00830018
0.26256,0.008408389
0.26264,0.008128129
0.26272,0.008406316
0.2628,0.009676461
0.26288,0.01024933
0.26296,0.009995975
0.26304,0.009741868
0.26312,0.00919292
0.2632,0.008003714
0.26328,0.006424952
0.26336,0.00591675
0.26344,0.005335412
0.26352,0.00442404
0.2636,0.003816825
0.26368,0.003176482
0.26376,0.002529221
0.26384,0.002898789
0.26392,0.002964561
0.264,0.002997874
0.26408,0.002663454
0.26416,0.001849832
0.26424,0.002012626
0.26432,0.002403828
0.2644,0.002792243
0.26448,0.003255206
0.26456,0.003214681
0.26464,0.002885511
0.26472,0.002445599
0.2648,0.002155331
0.26488,0.002084979
0.26496,0.001707732
0.26504,0.001262143
0.26512,0.0009914024
0.2652,0.0006731891
0.26528,0.0004202204
0.26536,0.0004962165
0.26544,0.0006459842
0.26552,0.001038175
0.2656,0.001254696
0.26568,0.001188485
0.26576,0.001280777
0.26584,0.0017597
0.26592,0.002360805
0.266,0.002591806
0.26608,0.00319011
0.26616,0.00332012
0.26624,0.002980175
0.26632,0.002460292
0.2664,0.001405718
0.26648,0.001282267
0.26656,0.001329248
0.26664,0.001706941
0.26672,0.001440873
0.2668,0.0009302958
0.26688,0.00046025
0.26696,-0.0006919329
0.26704,-0.001017292
0.26712,-0.001739661
0.2672,-0.002999946
0.26728,-0.003594517
0.26736,-0.004321018
0.26744,-0.004819696
0.26752,-0.005492782
0.2676,-0.005800316
0.26768,-0.006676463
0.26776,-0.008022194
0.26784,-0.008708559
0.26792,-0.009264065
0.268,-0.009555297
0.26808,-0.01023201
0.26816,-0.01057717
0.26824,-0.01073534
0.26832,-0.01137813
0.2684,-0.01199563
0.26848,-0.01202817
0.26856,-0.011905
0.26864,-0.01226319
0.26872,-0.01203736
0.2688,-0.01151826
0.26888,-0.01221214
0.26896,-0.01284016
0.26904,-0.01397307
0.26912,-0.01430679
0.2692,-0.0149118
0.26928,-0.0153732
0.26936,-0.01542451
0.26944,-0.0159335
0.26952,-0.01608265
0.2696,-0.01611318
0.26968,-0.01606178
0.26976,-0.01646182
0.26984,-0.01730365
0.26992,-0.01782387
0.27,-0.0182126
0.27008,-0.01818415
0.27016,-0.01789167
0.27024,-0.01720407
0.27032,-0.01686222
0.2704,-0.01659203
0.27048,-0.01580381
0.27056,-0.01480324
0.27064,-0.01443336
0.27072,-0.01443562
0.2708,-0.01446553
0.27088,-0.01454424
0.27096,-0.01515423
0.27104,-0.01526799
0.27112,-0.01507972
0.2712,-0.01511368
0.27128,-0.01453534
0.27136,-0.01424715
0.27144,-0.01459535
0.27152,-0.01449312
0.2716,-0.01438195
0.27168,-0.01472516
0.27176,-0.01444502
0.27184,-0.01416706
0.27192,-0.01416133
0.272,-0.01386734
0.27208,-0.01280686
0.27216,-0.01182467
0.27224,-0.01050036
0.27232,-0.009026745
0.2724,-0.0083792
0.27248,-0.008275606
0.27256,-0.008515322
0.27264,-0.008614889
0.27272,-0.009014244
0.2728,-0.008930191
0.27288,-0.008022619
0.27296,-0.007587145
0.27304,-0.006957293
0.27312,-0.006466951
0.2732,-0.006115239
0.27328,-0.005771955
0.27336,-0.005651786
0.27344,-0.006170835
0.27352,-0.006234481
0.2736,-0.006492699
0.27368,-0.006537108
0.27376,-0.006155809
0.27384,-0.006079949
0.27392,-0.005991329
0.274,-0.005410111
0.27408,-0.005257641
0.27416,-0.005349424
0.27424,-0.004695385
0.27432,-0.004071573
0.2744,-0.003040646
0.27448,-0.002262451
0.27456,-0.001375623
0.27464,-0.0006818153
0.27472,-0.0005379086
0.2748,-0.0004119556
0.27488,0.0002379278
0.27496,0.0001547509
0.27504,-6.688983e-05
0.27512,-0.00022848
0.2752,0.0004391889
0.27528,0.0007668894
0.27536,0.0009659496
0.27544,0.001016005
0.27552,0.001303259
0.2756,0.001737688
0.27568,0.002052818
0.27576,0.002889775
0.27584,0.003872856
0.27592,0.004639532
0.276,0.004608643
0.27608,0.005005221
0.27616,0.005784065
0.27624,0.006396349
0.27632,0.006413153
0.2764,0.006295029
0.27648,0.00581506
0.27656,0.005933412
0.27664,0.005265048
0.27672,0.004731445
0.2768,0.005098166
0.27688,0.006022013
0.27696,0.007075415
0.27704,0.007496805
0.27712,0.008452428
0.2772,0.008566642
0.27728,0.008792682
0.27736,0.008651503
0.27744,0.008225499
0.27752,0.008162535
0.2776,0.007939762
0.27768,0.008545286
0.27776,0.009616842
0.27784,0.01045007
0.27792,0.01039236
0.278,0.01074997
0.27808,0.01129338
0.27816,0.01134004
0.27824,0.01155477
0.27832,0.01173269
0.2784,0.01196034
0.27848,0.01209583
0.27856,0.01171898
0.27864,0.01174064
0.27872,0.01234694
0.2788,0.01232554
0.27888,0.01159255
0.27896,0.0107456
0.27904,0.01077743
0.27912,0.01098276
0.2792,0.01072441
0.27928,0.01031983
0.27936,0.01001009
0.27944,0.01022837
0.27952,0.01010217
0.2796,0.01046824
0.27968,0.01039182
0.27976,0.009773277
0.27984,0.009481163
0.27992,0.008660052
0.28,0.008327299
0.28008,0.008735468
0.28016,0.009855507
0.28024,0.01070406
0.28032,0.01109532
0.2804,0.01103583
0.28048,0.01057882
0.28056,0.01007915
0.28064,0.01034427
0.28072,0.0108227
0.2808,0.01057847
0.28088,0.01050451
0.28096,0.01089757
0.28104,0.01166331
0.28112,0.01259714
0.2812,0.01310228
0.28128,0.01339776
0.28136,0.01360278
0.28144,0.01373341
0.28152,0.01371424
0.2816,0.01321259
0.28168,0.01286741
0.28176,0.01277337
0.28184,0.0122343
0.28192,0.01140127
0.282,0.01104211
0.28208,0.01053915
0.28216,0.009849411
0.28224,0.00915149
0.28232,0.009025497
0.2824,0.008648072
0.28248,0.007501653
0.28256,0.007386062
0.28264,0.007031057
0.28272,0.006616173
0.2828,0.006365693
0.28288,0.005967958
0.28296,0.00569888
0.28304,0.005329389
0.28312,0.005013353
0.2832,0.005141677
0.28328,0.005281181
0.28336,0.004992768
0.28344,0.003904222
0.28352,0.00270516
0.2836,0.001987538
0.28368,0.001104343
0.28376,0.0005824438
0.28384,-0.0001490005
0.28392,-0.0007743671
0.284,-0.001393994
0.28408,-0.002045559
0.28416,-0.002336164
0.28424,-0.002274054
0.28432,-0.001917657
0.2844,-0.002255583
0.28448,-0.002747491
0.28456,-0.002972939
0.28464,-0.003133203
0.28472,-0.003415995
0.2848,-0.003345369
0.28488,-0.003285704
0.28496,-0.002949806
0.28504,-0.003041348
0.28512,-0.003461336
0.2852,-0.003662603
0.28528,-0.003851341
0.28536,-0.004162497
0.28544,-0.004349711
0.28552,-0.004708935
0.2856,-0.005233105
0.28568,-0.005380149
0.28576,-0.004816824
0.28584,-0.004340148
0.28592,-0.004528169
0.286,-0.004555738
0.28608,-0.0049508
0.28616,-0.00593682
0.28624,-0.006501077
0.28632,-0.006717199
0.2864,-0.006971633
0.28648,-0.00679039
0.28656,-0.006467297
0.28664,-0.006955218
0.28672,-0.00802387
0.2868,-0.009125988
0.28688,-0.009878416
0.28696,-0.01004448
0.28704,-0.009800063
0.28712,-0.009653456
0.2872,-0.01005953
0.28728,-0.01044148
0.28736,-0.01093907
0.28744,-0.01159109
0.28752,-0.01194127
0.2876,-0.01223426
0.28768,-0.01231428
0.28776,-0.01272577
0.28784,-0.01304046
0.28792,-0.01303643
0.288,-0.01266705
0.28808,-0.0121192
0.28816,-0.01141051
0.28824,-0.01029472
0.28832,-0.009850458
0.2884,-0.009829811
0.28848,-0.01017013
0.28856,-0.01097731
0.28864,-0.01224864
0.28872,-0.01347197
0.2888,-0.01455438
0.28888,-0.01530551
0.28896,-0.01532446
0.28904,-0.0158112
0.28912,-0.01628449
0.2892,-0.01684964
0.28928,-0.01766459
0.28936,-0.01696263
0.28944,-0.01581946
0.28952,-0.01567356
0.2896,-0.01605688
0.28968,-0.01574538
0.28976,-0.01503528
0.28984,-0.01497009
0.28992,-0.01438376
0.29,-0.0137945
0.29008,-0.01341447
0.29016,-0.01380713
0.29024,-0.01455426
0.29032,-0.01511167
0.2904,-0.01494071
0.29048,-0.01462165
0.29056,-0.01435533
0.29064,-0.01369054
0.29072,-0.01401501
0.2908,-0.01377492
0.29088,-0.01306398
0.29096,-0.01322659
0.29104,-0.0134748
0.29112,-0.01287165
0.2912,-0.01268799
0.29128,-0.01312006
0.29136,-0.01341016
0.29144,-0.01356838
0.29152,-0.01399006
0.2916,-0.01360041
0.29168,-0.01304782
0.29176,-0.01337818
0.29184,-0.01328592
0.29192,-0.01295597
0.292,-0.01253096
0.29208,-0.01164788
0.29216,-0.01148176
0.29224,-0.01110345
0.29232,-0.01041947
0.2924,-0.009499504
0.29248,-0.008289551
0.29256,-0.007402407
0.29264,-0.006821184
0.29272,-0.007358476
0.2928,-0.007796573
0.29288,-0.007981938
0.29296,-0.00672608
0.29304,-0.005423903
0.29312,-0.005555455
0.2932,-0.005932332
0.29328,-0.005651605
0.29336,-0.005315195
0.29344,-0.004918166
0.29352,-0.004507537
0.2936,-0.003758983
0.29368,-0.003504997
0.29376,-0.003198995
0.29384,-0.002682096
0.29392,-0.00232684
0.294,-0.001574183
0.29408,-0.0009673443
0.29416,-0.0005987253
0.29424,-0.0003350055
0.29432,0.0001373696
0.2944,0.0002445861
0.29448,-0.0001515585
0.29456,-0.0001722405
0.29464,0.000606214
0.29472,0.0005792135
0.2948,0.0006589471
0.29488,0.0008700601
0.29496,0.0009443886
0.29504,0.001186361
0.29512,0.0008840973
0.2952,0.001070687
0.29528,0.001450561
0.29536,0.002358098
0.29544,0.003763773
0.29552,0.004986851
0.2956,0.005461555
0.29568,0.005416621
0.29576,0.005384129
0.29584,0.004986904
0.29592,0.004708912
0.296,0.005058455
0.29608,0.006206685
0.29616,0.006586586
0.29624,0.006677904
0.29632,0.006720475
0.2964,0.00645645
0.29648,0.006348293
0.29656,0.006634872
0.29664,0.006949037
0.29672,0.007344875
0.2968,0.008032322
0.29688,0.008154684
0.29696,0.00822625
0.29704,0.007902533
0.29712,0.008269435
0.2972,0.008695967
0.29728,0.009062138
0.29736,0.009780183
0.29744,0.01098641
0.29752,0.01138056
0.2976,0.0106983
0.29768,0.009966722
0.29776,0.009471969
0.29784,0.009409914
0.29792,0.009672211
0.298,0.01021193
0.29808,0.01128664
0.29816,0.01164814
0.29824,0.01198105
0.29832,0.01230683
0.2984,0.01297216
0.29848,0.01370111
0.29856,0.01373753
0.29864,0.01385305
0.29872,0.01397401
0.2988,0.01378571
0.29888,0.01321353
0.29896,0.0127568
0.29904,0.01297748
0.29912,0.01405063
0.2992,0.014368
0.29928,0.0143081
0.29936,0.01386408
0.29944,0.01391229
0.29952,0.01363558
0.2996,0.01358266
0.29968,0.01436873
0.29976,0.0148573
0.29984,0.01494487
0.29992,0.01528544
0.3,0.01563311
0.30008,0.01537872
0.30016,0.01476556
0.30024,0.01413458
0.30032,0.01428041
0.3004,0.01437823
0.30048,0.01427681
0.30056,0.01461655
0.30064,0.01463501
0.30072,0.01451719
0.3008,0.01492746
0.30088,0.01588445
0.30096,0.0167313
0.30104,0.01733251
0.30112,0.01783945
0.3012,0.01753608
0.30128,0.01678225
0.30136,0.01605139
0.30144,0.01500202
0.30152,0.01392386
0.3016,0.01300076
0.30168,0.01180109
0.30176,0.01100098
0.30184,0.01109577
0.30192,0.01137637
0.302,0.01136742
0.30208,0.01158614
0.30216,0.0117301
0.30224,0.0120695
0.30232,0.01205681
0.3024,0.01184847
0.30248,0.01216903
0.30256,0.01261466
0.30264,0.01222248
0.30272,0.01095223
0.3028,0.0102499
0.30288,0.009988948
0.30296,0.009281582
0.30304,0.008662561
0.30312,0.007969698
0.3032,0.007541341
0.30328,0.006849778
0.30336,0.005965453
0.30344,0.006008942
0.30352,0.006818651
0.3036,0.006780353
0.30368,0.005955567
0.30376,0.005353969
0.30384,0.00529477
0.30392,0.00511456
0.304,0.004931852
0.30408,0.004742138
0.30416,0.004987677
0.30424,0.004599218
0.30432,0.003945884
0.3044,0.003624615
0.30448,0.003599094
0.30456,0.003468149
0.30464,0.002892662
0.30472,0.00256917
0.3048,0.002500525
0.30488,0.002668669
0.30496,0.003351451
0.30504,0.00322581
0.30512,0.003194062
0.3052,0.003678052
0.30528,0.004147435
0.30536,0.003634092
0.30544,0.003446838
0.30552,0.002526985
0.3056,0.001800791
0.30568,0.001633432
0.30576,0.0006812769
0.30584,-0.0007223334
0.30592,-0.001689655
0.306,-0.002734595
0.30608,-0.004197217
0.30616,-0.005595435
0.30624,-0.007105927
0.30632,-0.008242487
0.3064,-0.008898702
0.30648,-0.008856927
0.30656,-0.009040027
0.30664,-0.008871386
0.30672,-0.008527432
0.3068,-0.0080363
0.30688,-0.008047623
0.30696,-0.00848145
0.30704,-0.008807912
0.30712,-0.009197275
0.3072,-0.009970613
0.30728,-0.01034277
0.30736,-0.01000117
0.30744,-0.01086398
0.30752,-0.01170629
0.3076,-0.01148944
0.30768,-0.01040097
0.30776,-0.00970916
0.30784,-0.00930084
0.30792,-0.008235558
0.308,-0.007717545
0.30808,-0.007578348
0.30816,-0.007797615
0.30824,-0.008494162
0.30832,-0.008718382
0.3084,-0.008798255
0.30848,-0.008648557
0.30856,-0.008371322
0.30864,-0.008030446
0.30872,-0.007693093
0.3088,-0.007199178
0.30888,-0.00729192
0.30896,-0.007937254
0.30904,-0.008153514
0.30912,-0.008272207
0.3092,-0.008533954
0.30928,-0.008107249
0.30936,-0.008007994
0.30944,-0.008435263
0.30952,-0.009438221
0.3096,-0.009618916
0.30968,-0.009292254
0.30976,-0.008664671
0.30984,-0.007870625
0.30992,-0.00794822
0.31,-0.008824917
0.31008,-0.009529259
0.31016,-0.009619042
0.31024,-0.009926853
0.31032,-0.01037564
0.3104,-0.01077486
0.31048,-0.01118175
0.31056,-0.01164375
0.31064,-0.01177701
0.31072,-0.01171626
0.3108,-0.01163539
0.31088,-0.01184949
0.31096,-0.01223287
0.31104,-0.01240216
0.31112,-0.01220584
0.3112,-0.01145523
0.31128,-0.01113127
0.31136,-0.01109393
0.31144,-0.01091454
0.31152,-0.0108026
0.3116,-0.01012712
0.31168,-0.009925088
0.31176,-0.009853267
0.31184,-0.01078774
0.31192,-0.01160839
0.312,-0.01125849
0.31208,-0.01089558
0.31216,-0.01055518
0.31224,-0.01044255
0.31232,-0.01051431
0.3124,-0.01012702
0.31248,-0.00969075
0.31256,-0.01004931
0.31264,-0.01079765
0.31272,-0.01124582
0.3128,-0.01169381
0.31288,-0.01167963
0.31296,-0.01141448
0.31304,-0.01152043
0.31312,-0.01106483
0.3132,-0.01077337
0.31328,-0.01050265
0.31336,-0.01029094
0.31344,-0.01008078
0.31352,-0.009734782
0.3136,-0.008792649
0.31368,-0.007415852
0.31376,-0.006743619
0.31384,-0.007120288
0.31392,-0.007161242
0.314,-0.00714813
0.31408,-0.007024449
0.31416,-0.006752887
0.31424,-0.006469092
0.31432,-0.005967322
0.3144,-0.005300686
0.31448,-0.004859879
0.31456,-0.004627499
0.31464,-0.00388595
0.31472,-0.003384263
0.3148,-0.00333856
0.31488,-0.003355377
0.31496,-0.002572802
0.31504,-0.002142276
0.31512,-0.001492664
0.3152,-0.0006334247
0.31528,-7.115606e-05
0.31536,-0.0003568812
0.31544,-0.0008233131
0.31552,-0.0007761686
0.3156,-0.001012961
0.31568,-0.001068164
0.31576,-0.001017592
0.31584,-0.0005827646
0.31592,-0.0003176616
0.316,-0.0001593894
0.31608,0.001063159
0.31616,0.002435355
0.31624,0.003340112
0.31632,0.00400904
0.3164,0.004142568
0.31648,0.004093035
0.31656,0.004606227
0.31664,0.005635346
0.31672,0.006001566
0.3168,0.006127211
0.31688,0.006369942
0.31696,0.00601114
0.31704,0.00543658
0.31712,0.00548653
0.3172,0.006742163
0.31728,0.00844158
0.31736,0.009457602
0.31744,0.01023372
0.31752,0.01070754
0.3176,0.01094581
0.31768,0.01173303
0.31776,0.01275041
0.31784,0.01331561
0.31792,0.01335393
0.318,0.01315413
0.31808,0.01342346
0.31816,0.01344559
0.31824,0.01342923
0.31832,0.01371709
0.3184,0.01422247
0.31848,0.01421144
0.31856,0.01394909
0.31864,0.01424637
0.31872,0.01502679
0.3188,0.015237
0.31888,0.01536934
0.31896,0.01531871
0.31904,0.01574487
0.31912,0.01602293
0.3192,0.01520725
0.31928,0.01499676
0.31936,0.01496544
0.31944,0.0151325
0.31952,0.01548819
0.3196,0.01633158
0.31968,0.01686984
0.31976,0.01734838
0.31984,0.01785583
0.31992,0.01719013
0.32,0.01648723
0.32008,0.0159413
0.32016,0.01559159
0.32024,0.01494604
0.32032,0.01425612
0.3204,0.0145094
0.32048,0.01398851
0.32056,0.01372898
0.32064,0.01376875
0.32072,0.01371326
0.3208,0.01367757
0.32088,0.01402017
0.32096,0.01395916
0.32104,0.01360975
0.32112,0.01311443
0.3212,0.01268159
0.32128,0.012601
0.32136,0.01294902
0.32144,0.01290579
0.32152,0.01265079
0.3216,0.01231488
0.32168,0.01193592
0.32176,0.01122808
0.32184,0.01150491
0.32192,0.01168172
0.322,0.01118317
0.32208,0.0109249
0.32216,0.01087185
0.32224,0.01091882
0.32232,0.01114985
0.3224,0.01109284
0.32248,0.01110014
0.32256,0.01077746
0.32264,0.01066734
0.32272,0.01040917
0.3228,0.01091086
0.32288,0.01110017
0.32296,0.0109059
0.32304,0.01098794
0.32312,0.01126298
0.3232,0.01128627
0.32328,0.01093149
0.32336,0.01030059
0.32344,0.009018878
0.32352,0.008611899
0.3236,0.008267183
0.32368,0.00784525
0.32376,0.007044421
0.32384,0.006929054
0.32392,0.006916742
0.324,0.006417751
0.32408,0.005538938
0.32416,0.004569117
0.32424,0.003948927
0.32432,0.003784421
0.3244,0.003489003
0.32448,0.002766658
0.32456,0.002432751
0.32464,0.002400962
0.32472,0.002096533
0.3248,0.001075488
0.32488,0.0007985606
0.32496,0.0007764925
0.32504,0.0003725071
0.32512,0.0003350773
0.3252,0.0002966147
0.32528,-0.0007222259
0.32536,-0.001595542
0.32544,-0.001767214
0.32552,-0.001259902
0.3256,-0.00136315
0.32568,-0.001928656
0.32576,-0.00207171
0.32584,-0.002608901
0.32592,-0.003200614
0.326,-0.003747856
0.32608,-0.004171274
0.32616,-0.005231976
0.32624,-0.006710419
0.32632,-0.007731549
0.3264,-0.008558927
0.32648,-0.009172503
0.32656,-0.009055837
0.32664,-0.00927726
0.32672,-0.009178738
0.3268,-0.009263153
0.32688,-0.009479379
0.32696,-0.0100778
0.32704,-0.01100187
0.32712,-0.01125967
0.3272,-0.01082681
0.32728,-0.0106107
0.32736,-0.01062307
0.32744,-0.01073336
0.32752,-0.01063954
0.3276,-0.01050232
0.32768,-0.01024075
0.32776,-0.01038621
0.32784,-0.01075756
0.32792,-0.01149827
0.328,-0.01161467
0.32808,-0.01200033
0.32816,-0.01232533
0.32824,-0.01248229
0.32832,-0.01254685
0.3284,-0.01256122
0.32848,-0.01237424
0.32856,-0.01288609
0.32864,-0.01411976
0.32872,-0.01459854
0.3288,-0.01481469
0.32888,-0.01461354
0.32896,-0.01372609
0.32904,-0.01320183
0.32912,-0.01301633
0.3292,-0.01317901
0.32928,-0.01385489
0.32936,-0.01429859
0.32944,-0.01408666
0.32952,-0.01417253
0.3296,-0.01478154
0.32968,-0.01486942
0.32976,-0.01456565
0.32984,-0.0145438
0.32992,-0.01470125
0.33,-0.01430729
0.33008,-0.01371063
0.33016,-0.01416257
0.33024,-0.01462643
0.33032,-0.01491544
0.3304,-0.01480363
0.33048,-0.0142985
0.33056,-0.01423142
0.33064,-0.01373573
0.33072,-0.01342428
0.3308,-0.01329294
0.33088,-0.01289196
0.33096,-0.01286192
0.33104,-0.01291253
0.33112,-0.01310208
0.3312,-0.01257231
0.33128,-0.01175533
0.33136,-0.01121841
0.33144,-0.01100359
0.33152,-0.01078858
0.3316,-0.01053751
0.33168,-0.009966398
0.33176,-0.009546056
0.33184,-0.01002484
0.33192,-0.01040139
0.332,-0.01006444
0.33208,-0.009087171
0.33216,-0.008841163
0.33224,-0.008555554
0.33232,-0.008369666
0.3324,-0.008417642
0.33248,-0.008104836
0.33256,-0.008002219
0.33264,-0.007593221
0.33272,-0.007864797
0.3328,-0.008117929
0.33288,-0.008932658
0.33296,-0.009364323
0.33304,-0.009233897
0.33312,-0.009222045
0.3332,-0.009645733
0.33328,-0.01006698
0.33336,-0.009744055
0.33344,-0.009532341
0.33352,-0.009304783
0.3336,-0.008950341
0.33368,-0.008194756
0.33376,-0.00754266
0.33384,-0.007631157
0.33392,-0.007766145
0.334,-0.008078376
0.33408,-0.008262883
0.33416,-0.008054736
0.33424,-0.007410028
0.33432,-0.006747464
0.3344,-0.006519549
0.33448,-0.005735171
0.33456,-0.004627482
0.33464,-0.003794266
0.33472,-0.002898435
0.3348,-0.001915541
0.33488,-0.0009801945
0.33496,-0.0002383371
0.33504,0.0004150358
0.33512,0.0008408014
0.3352,0.000762498
0.33528,0.0005851769
0.33536,0.0006523209
0.33544,0.000304276
0.33552,-8.590589e-05
0.3356,0.0005911355
0.33568,0.0008539942
0.33576,0.0008511554
0.33584,0.001803353
0.33592,0.00240584
0.336,0.0026705
0.33608,0.002694145
0.33616,0.003638216
0.33624,0.004478941
0.33632,0.003878769
0.3364,0.00339139
0.33648,0.002886974
0.33656,0.00313711
0.33664,0.00309223
0.33672,0.003163972
0.3368,0.003423332
0.33688,0.004005408
0.33696,0.005254391
0.33704,0.006147446
0.33712,0.006422402
0.3372,0.006336993
0.33728,0.006691838
0.33736,0.007342543
0.33744,0.00825608
0.33752,0.009046473
0.3376,0.009543585
0.33768,0.01016824
0.33776,0.01094624
0.33784,0.01174958
0.33792,0.01205573
0.338,0.01202638
0.33808,0.01264522
0.33816,0.01390892
0.33824,0.01437844
0.33832,0.01409452
0.3384,0.0142977
0.33848,0.01458668
0.33856,0.01465762
0.33864,0.01397409
0.33872,0.01378849
0.3388,0.01406677
0.33888,0.01446831
0.33896,0.01503057
0.33904,0.01577559
0.33912,0.01583793
0.3392,0.01531264
0.33928,0.01541636
0.33936,0.01541791
0.33944,0.01559574
0.33952,0.01587471
0.3396,0.01549875
0.33968,0.01572634
0.33976,0.01613651
0.33984,0.01596869
0.33992,0.01622281
0.34,0.01614936
0.34008,0.01583342
0.34016,0.01525884
0.34024,0.01515789
0.34032,0.01526626
0.3404,0.01522352
0.34048,0.01599743
0.34056,0.01613455
0.34064,0.01609575
0.34072,0.0164685
0.3408,0.01736425
0.34088,0.0178146
0.34096,0.01858924
0.34104,0.0187689
0.34112,0.01818172
0.3412,0.01822666
0.34128,0.0174442
0.34136,0.0168661
0.34144,0.01623694
0.34152,0.01566366
0.3416,0.01524861
0.34168,0.01541647
0.34176,0.01525633
0.34184,0.01452337
0.34192,0.0140024
0.342,0.01349274
0.34208,0.01343044
0.34216,0.01351759
0.34224,0.01383544
0.34232,0.01367451
0.3424,0.01315297
0.34248,0.0129707
0.34256,0.01233879
0.34264,0.01229484
0.34272,0.01215486
0.3428,0.01284343
0.34288,0.01330571
0.34296,0.01290666
0.34304,0.01234778
0.34312,0.011624
0.3432,0.01103052
0.34328,0.01044642
0.34336,0.009635624
0.34344,0.008378439
0.34352,0.007320888
0.3436,0.006630416
0.34368,0.006630234
0.34376,0.007034191
0.34384,0.006863436
0.34392,0.006776061
0.344,0.006183058
0.34408,0.005207514
0.34416,0.004106668
0.34424,0.003507913
0.34432,0.003257732
0.3444,0.002684409
0.34448,0.001591098
0.34456,0.0004672191
0.34464,-0.0007620318
0.34472,-0.001585123
0.3448,-0.001996776
0.34488,-0.002115014
0.34496,-0.002085563
0.34504,-0.002720838
0.34512,-0.002876416
0.3452,-0.003602849
0.34528,-0.004096112
0.34536,-0.004010993
0.34544,-0.003990488
0.34552,-0.003834255
0.3456,-0.004384188
0.34568,-0.004566273
0.34576,-0.004384608
0.34584,-0.004499224
0.34592,-0.005137722
0.346,-0.005785783
0.34608,-0.006512131
0.34616,-0.00713475
0.34624,-0.007949568
0.34632,-0.008475414
0.3464,-0.008525578
0.34648,-0.008392424
0.34656,-0.007995391
0.34664,-0.00776967
0.34672,-0.00731717
0.3468,-0.006752764
0.34688,-0.007166592
0.34696,-0.007735237
0.34704,-0.008050216
0.34712,-0.007750187
0.3472,-0.007573151
0.34728,-0.008453384
0.34736,-0.009274666
0.34744,-0.009731882
0.34752,-0.009868454
0.3476,-0.01003138
0.34768,-0.01062719
0.34776,-0.0104791
0.34784,-0.01061701
0.34792,-0.01039971
0.348,-0.01002076
0.34808,-0.009919035
0.34816,-0.01035923
0.34824,-0.0105406
0.34832,-0.01041087
0.3484,-0.01018506
0.34848,-0.01003111
0.34856,-0.01008736
0.34864,-0.01053818
0.34872,-0.01131182
0.3488,-0.01114668
0.34888,-0.00998694
0.34896,-0.009123759
0.34904,-0.00904164
0.34912,-0.008779888
0.3492,-0.008753834
0.34928,-0.009082542
0.34936,-0.009769733
0.34944,-0.01008955
0.34952,-0.01029426
0.3496,-0.01085837
0.34968,-0.01111525
0.34976,-0.01111645
0.34984,-0.01111334
0.34992,-0.01142999
0.35,-0.01185657
0.35008,-0.01178115
0.35016,-0.01138198
0.35024,-0.01092408
0.35032,-0.01077863
0.3504,-0.01110732
0.35048,-0.01197759
0.35056,-0.01271949
0.35064,-0.01278816
0.35072,-0.01339712
0.3508,-0.01372948
0.35088,-0.0136338
0.35096,-0.01375938
0.35104,-0.01394728
0.35112,-0.01410703
0.3512,-0.01430913
0.35128,-0.01417163
0.35136,-0.01425365
0.35144,-0.01405783
0.35152,-0.01373372
0.3516,-0.01384835
0.35168,-0.01407497
0.35176,-0.01392107
0.35184,-0.01311332
0.35192,-0.01336914
0.352,-0.01409057
0.35208,-0.01470189
0.35216,-0.01478185
0.35224,-0.01447823
0.35232,-0.01430791
0.3524,-0.01412153
0.35248,-0.0143099
0.35256,-0.01404978
0.35264,-0.01323534
0.35272,-0.01233407
0.3528,-0.01136273
0.35288,-0.01049795
0.35296,-0.01084786
0.35304,-0.01165175
0.35312,-0.01190724
0.3532,-0.01182489
0.35328,-0.01165533
0.35336,-0.01168942
0.35344,-0.01118883
0.35352,-0.0104821
0.3536,-0.009559478
0.35368,-0.009362105
0.35376,-0.008885629
0.35384,-0.008367606
0.35392,-0.007955399
0.354,-0.007578161
0.35408,-0.006625129
0.35416,-0.00577951
0.35424,-0.005108668
0.35432,-0.005156859
0.3544,-0.005258637
0.35448,-0.005191831
0.35456,-0.004544199
0.35464,-0.004376258
0.35472,-0.0043563
0.3548,-0.003721353
0.35488,-0.003978087
0.35496,-0.003783671
0.35504,-0.00402387
0.35512,-0.004298081
0.3552,-0.003429803
0.35528,-0.00282089
0.35536,-0.001923204
0.35544,-0.001333172
0.35552,-0.001353277
0.3556,-0.001291952
0.35568,-0.000821179
0.35576,-0.0003591653
0.35584,0.0001498569
0.35592,0.000799492
0.356,0.001460984
0.35608,0.002171743
0.35616,0.002867531
0.35624,0.002940736
0.35632,0.001963757
0.3564,0.001644757
0.35648,0.001815644
0.35656,0.002423992
0.35664,0.002411036
0.35672,0.001642019
0.3568,0.001664143
0.35688,0.002170141
0.35696,0.003073211
0.35704,0.003966145
0.35712,0.004484739
0.3572,0.005592117
0.35728,0.006587685
0.35736,0.007459069
0.35744,0.007964527
0.35752,0.008258591
0.3576,0.00872534
0.35768,0.009613538
0.35776,0.01011943
0.35784,0.01013508
0.35792,0.0100319
0.358,0.01021532
0.35808,0.01069509
0.35816,0.01124592
0.35824,0.01137491
0.35832,0.01159585
0.3584,0.01276795
0.35848,0.01351703
0.35856,0.01397828
0.35864,0.01509224
0.35872,0.01539793
0.3588,0.01512122
0.35888,0.01522827
0.35896,0.01575525
0.35904,0.01529889
0.35912,0.01474718
0.3592,0.01460611
0.35928,0.0139365
0.35936,0.0140813
0.35944,0.01427551
0.35952,0.01379275
0.3596,0.01383922
0.35968,0.01438782
0.35976,0.01515834
0.35984,0.01575994
0.35992,0.01653253
0.36,0.01737797
0.36008,0.01810788
0.36016,0.01913677
0.36024,0.01965992
0.36032,0.01905426
0.3604,0.01847908
0.36048,0.01814578
0.36056,0.01828752
0.36064,0.01834905
0.36072,0.01843128
0.3608,0.01837004
0.36088,0.01803993
0.36096,0.017952
0.36104,0.01794443
0.36112,0.01779693
0.3612,0.01726369
0.36128,0.0174027
0.36136,0.01779313
0.36144,0.01802913
0.36152,0.01830064
0.3616,0.01803332
0.36168,0.01725374
0.36176,0.01694888
0.36184,0.01659448
0.36192,0.01593992
0.362,0.01581361
0.36208,0.01591097
0.36216,0.01554192
0.36224,0.01429389
0.36232,0.01377951
0.3624,0.01255245
0.36248,0.01207419
0.36256,0.01250751
0.36264,0.01220006
0.36272,0.01190617
0.3628,0.01192669
0.36288,0.01222879
0.36296,0.01227849
0.36304,0.01233575
0.36312,0.01263157
0.3632,0.01267255
0.36328,0.01254159
0.36336,0.01240527
0.36344,0.01243098
0.36352,0.01269086
0.3636,0.0125385
0.36368,0.01201729
0.36376,0.01096909
0.36384,0.009508429
0.36392,0.007630855
0.364,0.006115064
0.36408,0.005125865
0.36416,0.005132921
0.36424,0.005178513
0.36432,0.00488103
0.3644,0.004555147
0.36448,0.003970215
0.36456,0.003375233
0.36464,0.002510986
0.36472,0.001933407
0.3648,0.0007690096
0.36488,0.0005888622
0.36496,0.001044791
0.36504,0.001115124
0.36512,0.0009390807
0.3652,9.525036e-06
0.36528,-0.0009133796
0.36536,-0.001935661
0.36544,-0.00319126
0.36552,-0.004478202
0.3656,-0.0049756
0.36568,-0.00530716
0.36576,-0.006106374
0.36584,-0.006580883
0.36592,-0.007264862
0.366,-0.007681215
0.36608,-0.008064022
0.36616,-0.008048616
0.36624,-0.008147758
0.36632,-0.008800939
0.3664,-0.0095229
0.36648,-0.01023036
0.36656,-0.010434
0.36664,-0.01067617
0.36672,-0.01079271
0.3668,-0.01100374
0.36688,-0.01143263
0.36696,-0.01158213
0.36704,-0.0111258
0.36712,-0.0103581
0.3672,-0.01013394
0.36728,-0.009800883
0.36736,-0.01012365
0.36744,-0.01076395
0.36752,-0.01075074
0.3676,-0.01059649
0.36768,-0.01113687
0.36776,-0.01259512
0.36784,-0.01438011
0.36792,-0.01597967
0.368,-0.0164231
0.36808,-0.01620678
0.36816,-0.01584858
0.36824,-0.01555154
0.36832,-0.01613049
0.3684,-0.01632781
0.36848,-0.01648844
0.36856,-0.01661537
0.36864,-0.01711373
0.36872,-0.01771214
0.3688,-0.01772942
0.36888,-0.01784393
0.36896,-0.01731744
0.36904,-0.01713485
0.36912,-0.01679511
0.3692,-0.01689983
0.36928,-0.01697871
0.36936,-0.01687082
0.36944,-0.01721834
0.36952,-0.01753265
0.3696,-0.0174719
0.36968,-0.01716428
0.36976,-0.01680178
0.36984,-0.01666597
0.36992,-0.01653313
0.37,-0.01696267
0.37008,-0.01740248
0.37016,-0.01779349
0.37024,-0.01801351
0.37032,-0.0181308
0.3704,-0.01770844
0.37048,-0.01720776
0.37056,-0.01687931
0.37064,-0.01679983
0.37072,-0.01652423
0.3708,-0.01683887
0.37088,-0.01746892
0.37096,-0.01742404
0.37104,-0.01715012
0.37112,-0.01656002
0.3712,-0.01582535
0.37128,-0.01540812
0.37136,-0.01517573
0.37144,-0.01471096
0.37152,-0.01357817
0.3716,-0.01280948
0.37168,-0.01248243
0.37176,-0.01289193
0.37184,-0.01381835
0.37192,-0.01452754
0.372,-0.0147478
0.37208,-0.01456991
0.37216,-0.01423423
0.37224,-0.01357708
0.37232,-0.01310691
0.3724,-0.01278486
0.37248,-0.01238636
0.37256,-0.0119437
0.37264,-0.0119453
0.37272,-0.01196519
0.3728,-0.01137043
0.37288,-0.01107916
0.37296,-0.01086249
0.37304,-0.01130704
0.37312,-0.01155997
0.3732,-0.0108091
0.37328,-0.01004786
0.37336,-0.009571419
0.37344,-0.009990867
0.37352,-0.01043071
0.3736,-0.01030624
0.37368,-0.009986771
0.37376,-0.009443748
0.37384,-0.008717326
0.37392,-0.007657664
0.374,-0.007108842
0.37408,-0.007029158
0.37416,-0.006938417
0.37424,-0.006326486
0.37432,-0.00550477
0.3744,-0.005145501
0.37448,-0.004743536
0.37456,-0.003864565
0.37464,-0.002628973
0.37472,-0.001654621
0.3748,-0.00153257
0.37488,-0.001469445
0.37496,-0.0009314421
0.37504,-0.0004806121
0.37512,-0.0003758453
0.3752,-0.0001478019
0.37528,0.0003901024
0.37536,0.000996488
0.37544,0.001664191
0.37552,0.001895865
0.3756,0.002144301
0.37568,0.002317513
0.37576,0.001869959
0.37584,0.002023583
0.37592,0.002686236
0.376,0.003174994
0.37608,0.004171961
0.37616,0.005320591
0.37624,0.006521999
0.37632,0.007533901
0.3764,0.007979387
0.37648,0.008539957
0.37656,0.008783217
0.37664,0.009082929
0.37672,0.009362929
0.3768,0.008872816
0.37688,0.008926694
0.37696,0.008952162
0.37704,0.009155025
0.37712,0.008911873
0.3772,0.008201081
0.37728,0.008046603
0.37736,0.00771861
0.37744,0.007306019
0.37752,0.006149227
0.3776,0.005828109
0.37768,0.006237886
0.37776,0.006471384
0.37784,0.006561355
0.37792,0.007051758
0.378,0.008012109
0.37808,0.00828861
0.37816,0.008285849
0.37824,0.008257183
0.37832,0.008097836
0.3784,0.008194337
0.37848,0.008145124
0.37856,0.007408397
0.37864,0.0072613
0.37872,0.008385264
0.3788,0.009908676
0.37888,0.01106603
0.37896,0.0116624
0.37904,0.01229483
0.37912,0.01302782
0.3792,0.01370418
0.37928,0.01354432
0.37936,0.01279547
0.37944,0.01264285
0.37952,0.01308936
0.3796,0.01331454
0.37968,0.01351832
0.37976,0.01417948
0.37984,0.01426599
0.37992,0.01378603
0.38,0.01430286
0.38008,0.01478223
0.38016,0.01503232
0.38024,0.01501055
0.38032,0.01453794
0.3804,0.01407364
0.38048,0.01319736
0.38056,0.01247925
0.38064,0.01187678
0.38072,0.01108911
0.3808,0.009780694
0.38088,0.009004194
0.38096,0.009100288
0.38104,0.009255859
0.38112,0.00987596
0.3812,0.0103549
0.38128,0.01042236
0.38136,0.009453499
0.38144,0.008843137
0.38152,0.008798406
0.3816,0.007959346
0.38168,0.007963722
0.38176,0.008092727
0.38184,0.007993664
0.38192,0.008414053
0.382,0.009224475
0.38208,0.009470649
0.38216,0.009982465
0.38224,0.01061037
0.38232,0.01094045
0.3824,0.01118508
0.38248,0.01196078
0.38256,0.0128956
0.38264,0.01355409
0.38272,0.01328485
0.3828,0.0123834
0.38288,0.01084174
0.38296,0.009333682
0.38304,0.008776261
0.38312,0.008675096
0.3832,0.008656049
0.38328,0.008638443
0.38336,0.008679976
0.38344,0.009364244
0.38352,0.009523879
0.3836,0.00934229
0.38368,0.009390989
0.38376,0.009847175
0.38384,0.00959169
0.38392,0.008649761
0.384,0.008876082
0.38408,0.009053421
0.38416,0.00901047
0.38424,0.008731686
0.38432,0.008190978
0.3844,0.007471557
0.38448,0.006247684
0.38456,0.005717703
0.38464,0.005112881
0.38472,0.004786786
0.3848,0.004997742
0.38488,0.004869086
0.38496,0.004437411
0.38504,0.004616972
0.38512,0.004784927
0.3852,0.004870292
0.38528,0.005208295
0.38536,0.005466481
0.38544,0.005162149
0.38552,0.00366659
0.3856,0.001910077
0.38568,0.0008990724
0.38576,0.0004869032
0.38584,0.0009931675
0.38592,0.0009320693
0.386,0.0002772455
0.38608,-0.00033205
0.38616,-0.0006297241
0.38624,-0.0009321751
0.38632,-0.001649464
0.3864,-0.001609142
0.38648,-0.001668001
0.38656,-0.001682162
0.38664,-0.001740267
0.38672,-0.001589143
0.3868,-0.001207276
0.38688,-0.0009925367
0.38696,-0.0004321903
0.38704,-0.000177802
0.38712,0.0002854309
0.3872,0.0003696664
0.38728,-0.0005311935
0.38736,-0.001212072
0.38744,-0.001619648
0.38752,-0.002123098
0.3876,-0.002497839
0.38768,-0.003397295
0.38776,-0.004726781
0.38784,-0.006734179
0.38792,-0.008033173
0.388,-0.008952942
0.38808,-0.00999735
0.38816,-0.01060241
0.38824,-0.01050079
0.38832,-0.0107244
0.3884,-0.01111691
0.38848,-0.01093532
0.38856,-0.01067726
0.38864,-0.01028688
0.38872,-0.01088728
0.3888,-0.01143508
0.38888,-0.01187632
0.38896,-0.01250291
0.38904,-0.012374
0.38912,-0.01206682
0.3892,-0.01238712
0.38928,-0.01289824
0.38936,-0.01310591
0.38944,-0.01347426
0.38952,-0.01327164
0.3896,-0.01311382
0.38968,-0.01257928
0.38976,-0.01254284
0.38984,-0.0128888
0.38992,-0.01387054
0.39,-0.01509316
0.39008,-0.01520654
0.39016,-0.01495783
0.39024,-0.01474163
0.39032,-0.01491358
0.3904,-0.01512723
0.39048,-0.0154938
0.39056,-0.01543335
0.39064,-0.01594098
0.39072,-0.01694844
0.3908,-0.01781577
0.39088,-0.01867231
0.39096,-0.01907531
0.39104,-0.01934919
0.39112,-0.01964816
0.3912,-0.01998197
0.39128,-0.01986647
0.39136,-0.01975193
0.39144,-0.01920924
0.39152,-0.01850257
0.3916,-0.0184458
0.39168,-0.01862139
0.39176,-0.01848818
0.39184,-0.01768183
0.39192,-0.01720585
0.392,-0.01625345
0.39208,-0.01534799
0.39216,-0.01508512
0.39224,-0.01519844
0.39232,-0.01441603
0.3924,-0.01377444
0.39248,-0.01420712
0.39256,-0.0140557
0.39264,-0.01367102
0.39272,-0.01325481
0.3928,-0.01244587
0.39288,-0.01167899
0.39296,-0.01172471
0.39304,-0.01158011
0.39312,-0.01096719
0.3932,-0.009765042
0.39328,-0.009110841
0.39336,-0.009009747
0.39344,-0.009109055
0.39352,-0.0093662
0.3936,-0.008958921
0.39368,-0.008404742
0.39376,-0.008064847
0.39384,-0.008442938
0.39392,-0.008183121
0.394,-0.007649476
0.39408,-0.006791434
0.39416,-0.006317527
0.39424,-0.006405911
0.39432,-0.00650226
0.3944,-0.006008102
0.39448,-0.004898048
0.39456,-0.004644455
0.39464,-0.003961861
0.39472,-0.003267467
0.3948,-0.001845907
0.39488,-0.0008499182
0.39496,5.299996e-05
0.39504,0.001274403
0.39512,0.002090195
0.3952,0.002948656
0.39528,0.003691392
0.39536,0.004260618
0.39544,0.004108944
0.39552,0.004776703
0.3956,0.005827515
0.39568,0.006587374
0.39576,0.006575824
0.39584,0.006388068
0.39592,0.006391403
0.396,0.006517466
0.39608,0.006527345
0.39616,0.006194849
0.39624,0.006686738
0.39632,0.007649444
0.3964,0.007954123
0.39648,0.007992979
0.39656,0.007746329
0.39664,0.007516077
0.39672,0.00740722
0.3968,0.007774499
0.39688,0.007941537
0.39696,0.008189353
0.39704,0.007950703
0.39712,0.007458053
0.3972,0.007986537
0.39728,0.0089497
0.39736,0.009740387
0.39744,0.01047177
0.39752,0.01106895
0.3976,0.01122064
0.39768,0.01105931
0.39776,0.01066793
0.39784,0.01052858
0.39792,0.01099568
0.398,0.01209903
0.39808,0.01227972
0.39816,0.01222659
0.39824,0.0123077
0.39832,0.01237443
0.3984,0.01267635
0.39848,0.01300567
0.39856,0.014016
0.39864,0.01429329
0.39872,0.01468779
0.3988,0.01528345
0.39888,0.01567311
0.39896,0.0155212
0.39904,0.0157007
0.39912,0.01592993
0.3992,0.01569348
0.39928,0.01484092
0.39936,0.01405799
0.39944,0.0142248
0.39952,0.01518261
0.3996,0.01601874
0.39968,0.01631178
0.39976,0.01619121
0.39984,0.01574137
0.39992,0.01534485
0.4,0.01463938
0.40008,0.01455386
0.40016,0.01506871
0.40024,0.01553045
0.40032,0.01560094
0.4004,0.01503478
0.40048,0.01489821
0.40056,0.01489301
0.40064,0.01480036
0.40072,0.01462838
0.4008,0.01452417
0.40088,0.01548562
0.40096,0.0161627
0.40104,0.01666437
0.40112,0.01646099
0.4012,0.01558884
0.40128,0.01510704
0.40136,0.01505382
0.40144,0.01516995
0.40152,0.01503161
0.4016,0.01522294
0.40168,0.01614354
0.40176,0.0165316
0.40184,0.0162289
0.40192,0.0151054
0.402,0.01415108
0.40208,0.01352926
0.40216,0.01309309
0.40224,0.01253672
0.40232,0.01259033
0.4024,0.0134845
0.40248,0.01377792
0.40256,0.01345513
0.40264,0.01329542
0.40272,0.01309
0.4028,0.01227241
0.40288,0.01127149
0.40296,0.01074769
0.40304,0.009708209
0.40312,0.009250452
0.4032,0.008775081
0.40328,0.007681735
0.40336,0.006665724
0.40344,0.006166443
0.40352,0.00611032
0.4036,0.006628234
0.40368,0.007147488
0.40376,0.006445763
0.40384,0.005870249
0.40392,0.005922611
0.404,0.0056772
0.40408,0.004929547
0.40416,0.004184622
0.40424,0.003206657
0.40432,0.002153373
0.4044,0.00192204
0.40448,0.0014472
0.40456,0.0008140418
0.40464,-0.0002913575
0.40472,-0.00134819
0.4048,-0.001608289
0.40488,-0.001709957
0.40496,-0.001706059
0.40504,-0.001798355
0.40512,-0.00205261
0.4052,-0.001893587
0.40528,-0.002774983
0.40536,-0.003722711
0.40544,-0.004152944
0.40552,-0.004064953
0.4056,-0.003750322
0.40568,-0.004116976
0.40576,-0.004988566
0.40584,-0.005381215
0.40592,-0.005554279
0.406,-0.006128094
0.40608,-0.006279424
0.40616,-0.006563832
0.40624,-0.007170349
0.40632,-0.007393515
0.4064,-0.00732635
0.40648,-0.007400326
0.40656,-0.007824155
0.40664,-0.008169414
0.40672,-0.008745826
0.4068,-0.009326411
0.40688,-0.01041773
0.40696,-0.01075075
0.40704,-0.009935908
0.40712,-0.009440552
0.4072,-0.009290645
0.40728,-0.00957463
0.40736,-0.01048918
0.40744,-0.01118544
0.40752,-0.01119925
0.4076,-0.01186686
0.40768,-0.01207637
0.40776,-0.01194518
0.40784,-0.0122532
0.40792,-0.01240132
0.408,-0.01262623
0.40808,-0.01235545
0.40816,-0.01293584
0.40824,-0.01411637
0.40832,-0.01450733
0.4084,-0.01413445
0.40848,-0.01387149
0.40856,-0.01411442
0.40864,-0.01464405
0.40872,-0.01510742
0.4088,-0.01572841
0.40888,-0.0162257
0.40896,-0.01632101
0.40904,-0.01662157
0.40912,-0.01679276
0.4092,-0.01695841
0.40928,-0.01729567
0.40936,-0.01723534
0.40944,-0.01692456
0.40952,-0.01621505
0.4096,-0.01603924
0.40968,-0.01621583
0.40976,-0.01596597
0.40984,-0.01569164
0.40992,-0.01440373
0.41,-0.01310142
0.41008,-0.01303715
0.41016,-0.01379584
0.41024,-0.01388597
0.41032,-0.01436629
0.4104,-0.01485802
0.41048,-0.01510626
0.41056,-0.01532636
0.41064,-0.01531939
0.41072,-0.01491044
0.4108,-0.01409843
0.41088,-0.01333109
0.41096,-0.01330021
0.41104,-0.01337143
0.41112,-0.01345302
0.4112,-0.01326391
0.41128,-0.01325255
0.41136,-0.01303815
0.41144,-0.01298793
0.41152,-0.01338334
0.4116,-0.01327233
0.41168,-0.01301814
0.41176,-0.0127017
0.41184,-0.01251736
0.41192,-0.01250808
0.412,-0.01290159
0.41208,-0.01307962
0.41216,-0.01338425
0.41224,-0.01376573
0.41232,-0.01393715
0.4124,-0.01405582
0.41248,-0.01341829
0.41256,-0.01288845
0.41264,-0.01232274
0.41272,-0.01138566
0.4128,-0.01070687
0.41288,-0.01070201
0.41296,-0.01033129
0.41304,-0.009713061
0.41312,-0.009430627
0.4132,-0.009408913
0.41328,-0.008951276
0.41336,-0.008261552
0.41344,-0.008273435
0.41352,-0.008562671
0.4136,-0.008265845
0.41368,-0.00745337
0.41376,-0.006679595
0.41384,-0.005681387
0.41392,-0.004057842
0.414,-0.002888708
0.41408,-0.002696632
0.41416,-0.003003841
0.41424,-0.003492668
0.41432,-0.003051724
0.4144,-0.002645592
0.41448,-0.003136237
0.41456,-0.003367965
0.41464,-0.003211924
0.41472,-0.002397078
0.4148,-0.001569115
0.41488,-0.00117082
0.41496,-0.0006907587
0.41504,-0.0005555005
0.41512,-0.0006835432
0.4152,-0.0008749372
0.41528,-0.0007384584
0.41536,-0.0005529472
0.41544,0.0001369947
0.41552,0.0008926814
0.4156,0.001345399
0.41568,0.001685634
0.41576,0.001674712
0.41584,0.002265672
0.41592,0.003346411
0.416,0.004669908
0.41608,0.005228293
0.41616,0.005307904
0.41624,0.004607608
0.41632,0.004343828
0.4164,0.004447847
0.41648,0.004241648
0.41656,0.00493232
0.41664,0.004990423
0.41672,0.00492674
0.4168,0.004817575
0.41688,0.005369307
0.41696,0.005682626
0.41704,0.005931074
0.41712,0.006501891
0.4172,0.007082812
0.41728,0.007727082
0.41736,0.008674588
0.41744,0.009403333
0.41752,0.009521193
0.4176,0.009058862
0.41768,0.008853592
0.41776,0.009528231
0.41784,0.00996677
0.41792,0.01058327
0.418,0.01098521
0.41808,0.01014015
0.41816,0.01005615
0.41824,0.0105629
0.41832,0.01166621
0.4184,0.01230068
0.41848,0.01184443
0.41856,0.0110894
0.41864,0.01053427
0.41872,0.01011211
0.4188,0.01076179
0.41888,0.01161788
0.41896,0.01207035
0.41904,0.01286753
0.41912,0.01352571
0.4192,0.0141202
0.41928,0.01498847
0.41936,0.01559303
0.41944,0.01597138
0.41952,0.01622054
0.4196,0.01615101
0.41968,0.01631222
0.41976,0.01639559
0.41984,0.01582665
0.41992,0.01535185
0.42,0.01489221
0.42008,0.01464534
0.42016,0.01487777
0.42024,0.01536328
0.42032,0.01566109
0.4204,0.01583669
0.42048,0.01612319
0.42056,0.01593501
0.42064,0.01509589
0.42072,0.01423315
0.4208,0.01382813
0.42088,0.0137204
0.42096,0.01356268
0.42104,0.01383132
0.42112,0.01411424
0.4212,0.01379778
0.42128,0.01392995
0.42136,0.0141765
0.42144,0.01430046
0.42152,0.01411869
0.4216,0.01423919
0.42168,0.01429428
0.42176,0.01451133
0.42184,0.01452783
0.42192,0.0144464
0.422,0.01381264
0.42208,0.01317764
0.42216,0.01295157
0.42224,0.01148657
0.42232,0.0110618
0.4224,0.01072031
0.42248,0.01016745
0.42256,0.01032151
0.42264,0.01108554
0.42272,0.01179452
0.4228,0.01213922
0.42288,0.01190937
0.42296,0.01031441
0.42304,0.008961057
0.42312,0.008403187
0.4232,0.007565125
0.42328,0.006647419
0.42336,0.006006109
0.42344,0.006157328
0.42352,0.006906579
0.4236,0.00692871
0.42368,0.007506501
0.42376,0.007630855
0.42384,0.007910999
0.42392,0.007896735
0.424,0.007402963
0.42408,0.006859831
0.42416,0.006311815
0.42424,0.007264846
0.42432,0.008433734
0.4244,0.008751737
0.42448,0.008152341
0.42456,0.007335694
0.42464,0.006293533
0.42472,0.004529161
0.4248,0.003179166
0.42488,0.003285294
0.42496,0.003747881
0.42504,0.003298722
0.42512,0.002568492
0.4252,0.002519346
0.42528,0.002563156
0.42536,0.002259739
0.42544,0.002508061
0.42552,0.002578519
0.4256,0.001758003
0.42568,0.001197648
0.42576,0.000875979
0.42584,0.0007964586
0.42592,0.0008325069
0.426,0.000561724
0.42608,0.0005094344
0.42616,0.0002847045
0.42624,-0.0001145296
0.42632,-0.0007039146
0.4264,-0.0009627204
0.42648,-0.001223395
0.42656,-0.00219633
0.42664,-0.002652303
0.42672,-0.002954969
0.4268,-0.003005074
0.42688,-0.003915973
0.42696,-0.004915414
0.42704,-0.005897413
0.42712,-0.007078422
0.4272,-0.007730471
0.42728,-0.008655216
0.42736,-0.009367447
0.42744,-0.00938255
0.42752,-0.00989584
0.4276,-0.01032066
0.42768,-0.01036116
0.42776,-0.01015926
0.42784,-0.01034834
0.42792,-0.01064479
0.428,-0.01046663
0.42808,-0.01028377
0.42816,-0.01133827
0.42824,-0.01224788
0.42832,-0.01335887
0.4284,-0.01375968
0.42848,-0.01417078
0.42856,-0.01480338
0.42864,-0.01492156
0.42872,-0.01463022
0.4288,-0.01357462
0.42888,-0.01315702
0.42896,-0.0131916
0.42904,-0.01342524
0.42912,-0.01322496
0.4292,-0.01392564
0.42928,-0.01454125
0.42936,-0.01471651
0.42944,-0.01443148
0.42952,-0.01416782
0.4296,-0.01359323
0.42968,-0.01334797
0.42976,-0.01301621
0.42984,-0.01245313
0.42992,-0.0118633
0.43,-0.01193533
0.43008,-0.0123807
0.43016,-0.0124845
0.43024,-0.01248396
0.43032,-0.01281004
0.4304,-0.013563
0.43048,-0.01353
0.43056,-0.01311726
0.43064,-0.01256879
0.43072,-0.0121693
0.4308,-0.01258705
0.43088,-0.01315561
0.43096,-0.01296995
0.43104,-0.0129889
0.43112,-0.01331424
0.4312,-0.01400724
0.43128,-0.01426412
0.43136,-0.01401809
0.43144,-0.0140159
0.43152,-0.01367536
0.4316,-0.01384848
0.43168,-0.01440608
0.43176,-0.01468651
0.43184,-0.01433247
0.43192,-0.0142013
0.432,-0.01398983
0.43208,-0.01349641
0.43216,-0.01322213
0.43224,-0.01295895
0.43232,-0.01304191
0.4324,-0.0128764
0.43248,-0.01259178
0.43256,-0.012294
0.43264,-0.0118992
0.43272,-0.0111792
0.4328,-0.01066663
0.43288,-0.009823646
0.43296,-0.009179006
0.43304,-0.008809721
0.43312,-0.008462928
0.4332,-0.008061452
0.43328,-0.007762418
0.43336,-0.006973829
0.43344,-0.005732223
0.43352,-0.004790653
0.4336,-0.004018902
0.43368,-0.003919228
0.43376,-0.003967923
0.43384,-0.003650544
0.43392,-0.00322646
0.434,-0.002949269
0.43408,-0.002654603
0.43416,-0.002116847
0.43424,-0.001560345
0.43432,-0.001442203
0.4344,-0.001458041
0.43448,-0.001004684
0.43456,-0.000292036
0.43464,-0.0002373745
0.43472,-0.0005506018
0.4348,-0.0009112795
0.43488,-0.001003098
0.43496,-0.001323427
0.43504,-0.001497776
0.43512,-0.001676308
0.4352,-0.001969581
0.43528,-0.00243415
0.43536,-0.002569288
0.43544,-0.00211005
0.43552,-0.001654277
0.4356,-0.00104506
0.43568,0.0003234454
0.43576,0.00173991
0.43584,0.002702172
0.43592,0.002633183
0.436,0.001932108
0.43608,0.001338055
0.43616,0.001590542
0.43624,0.002041312
0.43632,0.001648292
0.4364,0.001853363
0.43648,0.002308065
0.43656,0.003224493
0.43664,0.003791927
0.43672,0.003992282
0.4368,0.004446078
0.43688,0.004167926
0.43696,0.003634865
0.43704,0.003497199
0.43712,0.004337394
0.4372,0.004819145
0.43728,0.004540294
0.43736,0.004026748
0.43744,0.003316649
0.43752,0.003040035
0.4376,0.003557355
0.43768,0.004461949
0.43776,0.005830412
0.43784,0.006889421
0.43792,0.007736877
0.438,0.008040972
0.43808,0.008388571
0.43816,0.009633444
0.43824,0.01121821
0.43832,0.01168481
0.4384,0.01127897
0.43848,0.01092646
0.43856,0.01142365
0.43864,0.01171279
0.43872,0.01230503
0.4388,0.01318009
0.43888,0.01345308
0.43896,0.01352877
0.43904,0.01349112
0.43912,0.01321217
0.4392,0.01301498
0.43928,0.01280947
0.43936,0.01321495
0.43944,0.01342302
0.43952,0.01343596
0.4396,0.01311116
0.43968,0.01268259
0.43976,0.01233456
0.43984,0.01241932
0.43992,0.01211994
0.44,0.01222848
0.44008,0.01339204
0.44016,0.01404023
0.44024,0.01445718
0.44032,0.01515345
0.4404,0.01520761
0.44048,0.01528249
0.44056,0.01518807
0.44064,0.01615432
0.44072,0.01689239
0.4408,0.01691556
0.44088,0.01636863
0.44096,0.01594706
0.44104,0.01557835
0.44112,0.01510407
0.4412,0.01472764
0.44128,0.01500306
0.44136,0.01554207
0.44144,0.01596642
0.44152,0.01613333
0.4416,0.01587715
0.44168,0.01521151
0.44176,0.01482703
0.44184,0.01471064
0.44192,0.01463233
0.442,0.01581314
0.44208,0.01673857
0.44216,0.01777629
0.44224,0.01837449
0.44232,0.01845571
0.4424,0.01848948
0.44248,0.01785318
0.44256,0.01671696
0.44264,0.01551452
0.44272,0.01491994
0.4428,0.01478899
0.44288,0.01409275
0.44296,0.01343297
0.44304,0.01258205
0.44312,0.0121487
0.4432,0.01199678
0.44328,0.01111634
0.44336,0.009830345
0.44344,0.008655772
0.44352,0.007820296
0.4436,0.007236867
0.44368,0.006308752
0.44376,0.005314201
0.44384,0.00472566
0.44392,0.00410884
0.444,0.003207838
0.44408,0.002202866
0.44416,0.00155342
0.44424,0.002026975
0.44432,0.002314018
0.4444,0.003040743
0.44448,0.003470629
0.44456,0.002980949
0.44464,0.002708955
0.44472,0.002005934
0.4448,0.001464548
0.44488,0.0007475052
0.44496,3.931117e-05
0.44504,-0.000395781
0.44512,-0.0007452258
0.4452,-0.001479875
0.44528,-0.001718435
0.44536,-0.00160958
0.44544,-0.001422817
0.44552,-0.001637227
0.4456,-0.001884092
0.44568,-0.001931902
0.44576,-0.002093216
0.44584,-0.002098897
0.44592,-0.002343818
0.446,-0.00274724
0.44608,-0.00261443
0.44616,-0.002287919
0.44624,-0.002375916
0.44632,-0.002685921
0.4464,-0.00274095
0.44648,-0.00339828
0.44656,-0.004517522
0.44664,-0.005333622
0.44672,-0.00671244
0.4468,-0.007640052
0.44688,-0.008278427
0.44696,-0.008458265
0.44704,-0.00936796
0.44712,-0.01091627
0.4472,-0.01154518
0.44728,-0.01246207
0.44736,-0.01294008
0.44744,-0.01370959
0.44752,-0.01461861
0.4476,-0.0146759
0.44768,-0.01416107
0.44776,-0.01419442
0.44784,-0.01432528
0.44792,-0.01454849
0.448,-0.01460544
0.44808,-0.01481231
0.44816,-0.01491404
0.44824,-0.01537493
0.44832,-0.01558359
0.4484,-0.01595833
0.44848,-0.01644915
0.44856,-0.01682189
0.44864,-0.01720397
0.44872,-0.01738052
0.4488,-0.01720151
0.44888,-0.01698018
0.44896,-0.01713914
0.44904,-0.01792007
0.44912,-0.01719023
0.4492,-0.01660947
0.44928,-0.01647392
0.44936,-0.01684722
0.44944,-0.01756644
0.44952,-0.01778855
0.4496,-0.01782067
0.44968,-0.01733631
0.44976,-0.01700415
0.44984,-0.0169811
0.44992,-0.01673597
0.45,-0.01691481
0.45008,-0.01707076
0.45016,-0.01707193
0.45024,-0.01693142
0.45032,-0.01672424
0.4504,-0.01679881
0.45048,-0.01692764
0.45056,-0.01678849
0.45064,-0.01648654
0.45072,-0.01626617
0.4508,-0.01582002
0.45088,-0.0157521
0.45096,-0.01558535
0.45104,-0.01645591
0.45112,-0.01697679
0.4512,-0.01623057
0.45128,-0.01589883
0.45136,-0.01577738
0.45144,-0.01499044
0.45152,-0.01392701
0.4516,-0.01338494
0.45168,-0.01282098
0.45176,-0.01217587
0.45184,-0.0110644
0.45192,-0.01068289
0.452,-0.010801
0.45208,-0.01178624
0.45216,-0.01258169
0.45224,-0.01217008
0.45232,-0.01165171
0.4524,-0.01136549
0.45248,-0.01011724
0.45256,-0.009672488
0.45264,-0.009644443
0.45272,-0.009155986
0.4528,-0.008880123
0.45288,-0.008852006
0.45296,-0.008766651
0.45304,-0.008158884
0.45312,-0.007506464
0.4532,-0.007087305
0.45328,-0.007512161
0.45336,-0.007550325
0.45344,-0.007725972
0.45352,-0.008229012
0.4536,-0.008189883
0.45368,-0.007542899
0.45376,-0.007173992
0.45384,-0.007051976
0.45392,-0.007091978
0.454,-0.007002167
0.45408,-0.006975168
0.45416,-0.00569073
0.45424,-0.004559629
0.45432,-0.004540908
0.4544,-0.004819248
0.45448,-0.004185839
0.45456,-0.00375493
0.45464,-0.003746309
0.45472,-0.003533951
0.4548,-0.003137505
0.45488,-0.002706549
0.45496,-0.002593377
0.45504,-0.002502623
0.45512,-0.00193656
0.4552,-0.001632521
0.45528,-0.001101255
0.45536,-0.0001533388
0.45544,0.0006020874
0.45552,0.001076139
0.4556,0.0009486355
0.45568,0.001150043
0.45576,0.001145591
0.45584,0.001137328
0.45592,0.002010028
0.456,0.002899591
0.45608,0.003707644
0.45616,0.004347054
0.45624,0.004426142
0.45632,0.004640453
0.4564,0.004270532
0.45648,0.004191468
0.45656,0.004726235
0.45664,0.004961667
0.45672,0.005841329
0.4568,0.006547637
0.45688,0.007060954
0.45696,0.007541592
0.45704,0.008074748
0.45712,0.008032111
0.4572,0.007891186
0.45728,0.007907459
0.45736,0.008002068
0.45744,0.007381027
0.45752,0.006293069
0.4576,0.006021273
0.45768,0.006254367
0.45776,0.006806011
0.45784,0.007239396
0.45792,0.006797638
0.458,0.007013869
0.45808,0.007652523
0.45816,0.007990102
0.45824,0.008255893
0.45832,0.008479589
0.4584,0.00896861
0.45848,0.009526958
0.45856,0.009874004
0.45864,0.01066687
0.45872,0.01171296
0.4588,0.012537
0.45888,0.01256793
0.45896,0.01318671
0.45904,0.01349673
0.45912,0.01375333
0.4592,0.01412815
0.45928,0.0133652
0.45936,0.01302292
0.45944,0.01269106
0.45952,0.01289566
0.4596,0.01329591
0.45968,0.01349536
0.45976,0.01399672
0.45984,0.01412767
0.45992,0.01361734
0.46,0.01313543
0.46008,0.01317677
0.46016,0.01284964
0.46024,0.01184977
0.46032,0.01105437
0.4604,0.01054881
0.46048,0.01029663
0.46056,0.01054356
0.46064,0.01127772
0.46072,0.01224174
0.4608,0.01300218
0.46088,0.01314807
0.46096,0.01324215
0.46104,0.01307664
0.46112,0.01286269
0.4612,0.01264538
0.46128,0.01257831
0.46136,0.01230369
0.46144,0.01138118
0.46152,0.01064041
0.4616,0.01051848
0.46168,0.01063754
0.46176,0.01033395
0.46184,0.01012935
0.46192,0.01063806
0.462,0.01102069
0.46208,0.01095652
0.46216,0.01104589
0.46224,0.01088137
0.46232,0.01040043
0.4624,0.01023531
0.46248,0.01041054
0.46256,0.01067919
0.46264,0.01099936
0.46272,0.01100019
0.4628,0.01111341
0.46288,0.01120823
0.46296,0.01122027
0.46304,0.01127625
0.46312,0.01100989
0.4632,0.01070395
0.46328,0.01023925
0.46336,0.009812231
0.46344,0.009617601
0.46352,0.008530204
0.4636,0.007724296
0.46368,0.007050606
0.46376,0.006305321
0.46384,0.006173846
0.46392,0.006264037
0.464,0.006377569
0.46408,0.006354229
0.46416,0.005984697
0.46424,0.005718369
0.46432,0.005307399
0.4644,0.004650992
0.46448,0.004405402
0.46456,0.004147885
0.46464,0.003742584
0.46472,0.003930238
0.4648,0.003793141
0.46488,0.003468114
0.46496,0.003326073
0.46504,0.003351487
0.46512,0.003137213
0.4652,0.002617167
0.46528,0.002218265
0.46536,0.001472523
0.46544,0.0008193502
0.46552,0.001004866
0.4656,0.002426262
0.46568,0.003457398
0.46576,0.003317167
0.46584,0.002787246
0.46592,0.00228395
0.466,0.002496361
0.46608,0.001976742
0.46616,0.001721523
0.46624,0.001914492
0.46632,0.001720021
0.4664,0.001335704
0.46648,0.0007579479
0.46656,0.0002773232
0.46664,3.376675e-06
0.46672,-0.0004859277
0.4668,-0.0004547563
0.46688,-0.0007409066
0.46696,-0.0009319652
0.46704,-0.0007476108
0.46712,-0.000438125
0.4672,-0.0004019071
0.46728,-0.0005157068
0.46736,-0.001710013
0.46744,-0.002609424
0.46752,-0.00279689
0.4676,-0.002999482
0.46768,-0.002833629
0.46776,-0.002486843
0.46784,-0.002070931
0.46792,-0.002110857
0.468,-0.002296479
0.46808,-0.002856884
0.46816,-0.003178105
0.46824,-0.003593518
0.46832,-0.004275616
0.4684,-0.004489078
0.46848,-0.004753677
0.46856,-0.004908869
0.46864,-0.004842658
0.46872,-0.005503965
0.4688,-0.005978481
0.46888,-0.006057309
0.46896,-0.005989642
0.46904,-0.006446426
0.46912,-0.007875681
0.4692,-0.008927791
0.46928,-0.009216423
0.46936,-0.009315496
0.46944,-0.00933146
0.46952,-0.009474096
0.4696,-0.009907993
0.46968,-0.01002723
0.46976,-0.009865406
0.46984,-0.00983756
0.46992,-0.01033527
0.47,-0.01092906
0.47008,-0.01135432
0.47016,-0.01231621
0.47024,-0.01305566
0.47032,-0.01339161
0.4704,-0.0141093
0.47048,-0.01407872
0.47056,-0.01442362
0.47064,-0.01508851
0.47072,-0.0151754
0.4708,-0.01528284
0.47088,-0.01549677
0.47096,-0.01553351
0.47104,-0.01554113
0.47112,-0.01508331
0.4712,-0.01519239
0.47128,-0.01547196
0.47136,-0.01518835
0.47144,-0.01455485
0.47152,-0.01408051
0.4716,-0.01429823
0.47168,-0.0141936
0.47176,-0.01465772
0.47184,-0.01462704
0.47192,-0.01522681
0.472,-0.01572815
0.47208,-0.01571095
0.47216,-0.01512615
0.47224,-0.01488178
0.47232,-0.01460962
0.4724,-0.01427589
0.47248,-0.01484194
0.47256,-0.01507288
0.47264,-0.01455211
0.47272,-0.01423055
0.4728,-0.01422657
0.47288,-0.0139988
0.47296,-0.0130713
0.47304,-0.01221863
0.47312,-0.01179765
0.4732,-0.01145021
0.47328,-0.01113669
0.47336,-0.01063521
0.47344,-0.01047387
0.47352,-0.009993211
0.4736,-0.009240169
0.47368,-0.008996069
0.47376,-0.008763273
0.47384,-0.008883519
0.47392,-0.009228926
0.474,-0.009539867
0.47408,-0.009465776
0.47416,-0.008339175
0.47424,-0.007511463
0.47432,-0.006912561
0.4744,-0.006062398
0.47448,-0.005081123
0.47456,-0.00469546
0.47464,-0.004236365
0.47472,-0.003115415
0.4748,-0.002215625
0.47488,-0.00146351
0.47496,-0.0007791187
0.47504,-0.0006587954
0.47512,-0.000145329
0.4752,0.0008921105
0.47528,0.001414679
0.47536,0.00101899
0.47544,0.001204826
0.47552,0.001086936
0.4756,0.0007529232
0.47568,0.0009164846
0.47576,0.00107761
0.47584,0.001268647
0.47592,0.0009998039
0.476,0.0006783591
0.47608,0.0002841394
0.47616,-0.0001245252
0.47624,-0.0002039243
0.47632,-0.000122987
0.4764,0.0003590328
0.47648,0.001186495
0.47656,0.001676763
0.47664,0.00249189
0.47672,0.003365615
0.4768,0.003513537
0.47688,0.003924065
0.47696,0.004612641
0.47704,0.005286875
0.47712,0.005799299
0.4772,0.005958756
0.47728,0.006138002
0.47736,0.007209477
0.47744,0.008032976
0.47752,0.007883248
0.4776,0.007777478
0.47768,0.007368203
0.47776,0.007027373
0.47784,0.007437785
0.47792,0.007819548
0.478,0.007745517
0.47808,0.00701034
0.47816,0.007097454
0.47824,0.007177773
0.47832,0.007485961
0.4784,0.008259909
0.47848,0.009136165
0.47856,0.009515837
0.47864,0.009649226
0.47872,0.01063929
0.4788,0.01121974
0.47888,0.0111218
0.47896,0.01058933
0.47904,0.01060043
0.47912,0.01053947
0.4792,0.011065
0.47928,0.01173534
0.47936,0.01203646
0.47944,0.01314109
0.47952,0.01358637
0.4796,0.01398738
0.47968,0.0142638
0.47976,0.01348085
0.47984,0.01277845
0.47992,0.01229497
0.48,0.01222094
0.48008,0.01228224
0.48016,0.01231096
0.48024,0.01276135
0.48032,0.01374912
0.4804,0.01438597
0.48048,0.0144469
0.48056,0.0143869
0.48064,0.01359394
0.48072,0.01318193
0.4808,0.01284214
0.48088,0.01247071
0.48096,0.0116705
0.48104,0.01147073
0.48112,0.01222107
0.4812,0.01286481
0.48128,0.01311827
0.48136,0.01318465
0.48144,0.01316019
0.48152,0.01294294
0.4816,0.01211181
0.48168,0.01143172
0.48176,0.01090253
0.48184,0.01051317
0.48192,0.01004797
0.482,0.0100308
0.48208,0.01052197
0.48216,0.01102072
0.48224,0.01116157
0.48232,0.01052361
0.4824,0.01027887
0.48248,0.01041979
0.48256,0.01032239
0.48264,0.009886246
0.48272,0.009564822
0.4828,0.009425071
0.48288,0.009346542
0.48296,0.00912599
0.48304,0.009196902
0.48312,0.008928637
0.4832,0.008060442
0.48328,0.007908273
0.48336,0.008111838
0.48344,0.008249919
0.48352,0.008338545
0.4836,0.008505524
0.48368,0.009007152
0.48376,0.009263678
0.48384,0.009529714
0.48392,0.00953138
0.484,0.008911851
0.48408,0.008526644
0.48416,0.008367982
0.48424,0.008182884
0.48432,0.007422094
0.4844,0.006387864
0.48448,0.005816562
0.48456,0.004933639
0.48464,0.004422861
0.48472,0.004059538
0.4848,0.003809029
0.48488,0.00393072
0.48496,0.003815245
0.48504,0.003695011
0.48512,0.002821666
0.4852,0.001719251
0.48528,0.001330752
0.48536,0.001532288
0.48544,0.001981668
0.48552,0.002398004
0.4856,0.002210055
0.48568,0.0020841
0.48576,0.001811754
0.48584,0.001328485
0.48592,0.000480745
0.486,-0.0002538432
0.48608,-0.0007037594
0.48616,-0.000959783
0.48624,-0.0006315539
0.48632,-0.000403973
0.4864,-3.003e-05
