time_s,voltage_v
0.0,0.01498141
8e-05,0.0156452
0.00016,0.01578095
0.00024,0.01566073
0.00032,0.015368
0.0004,0.01521073
0.00048,0.01526162
0.00056,0.01484813
0.00064,0.01392858
0.00072,0.01276127
0.0008,0.01110241
0.00088,0.009728474
0.00096,0.00926636
0.00104,0.009851188
0.00112,0.01011199
0.0012,0.01074945
0.00128,0.0114909
0.00136,0.01148766
0.00144,0.01090006
0.00152,0.009756103
0.0016,0.00854902
0.00168,0.007520487
0.00176,0.007114669
0.00184,0.006275863
0.00192,0.005445466
0.002,0.004984926
0.00208,0.003711033
0.00216,0.0032278
0.00224,0.003024406
0.00232,0.00253057
0.0024,0.00254542
0.00248,0.002291639
0.00256,0.001545049
0.00264,0.001380949
0.00272,0.001576042
0.0028,0.001628844
0.00288,0.001752623
0.00296,0.001438129
0.00304,0.0007000737
0.00312,0.000734008
0.0032,0.0004793013
0.00328,-0.001123358
0.00336,-0.002197138
0.00344,-0.002853933
0.00352,-0.00321105
0.0036,-0.003663773
0.00368,-0.004413227
0.00376,-0.00516419
0.00384,-0.005806134
0.00392,-0.00619931
0.004,-0.006555088
0.00408,-0.006893588
0.00416,-0.007119642
0.00424,-0.007330067
0.00432,-0.007693603
0.0044,-0.007716738
0.00448,-0.007874632
0.00456,-0.008226737
0.00464,-0.008362843
0.00472,-0.007940335
0.0048,-0.008090919
0.00488,-0.007750823
0.00496,-0.007277889
0.00504,-0.006609111
0.00512,-0.00592909
0.0052,-0.00591977
0.00528,-0.006034359
0.00536,-0.006099272
0.00544,-0.006158844
0.00552,-0.006410133
0.0056,-0.006738834
0.00568,-0.00672118
0.00576,-0.006529545
0.00584,-0.006492828
0.00592,-0.006307881
0.006,-0.006158244
0.00608,-0.00590277
0.00616,-0.006348793
0.00624,-0.007129861
0.00632,-0.007910796
0.0064,-0.008305305
0.00648,-0.008448978
0.00656,-0.008991672
0.00664,-0.009851638
0.00672,-0.01077186
0.0068,-0.01130075
0.00688,-0.01171852
0.00696,-0.01180958
0.00704,-0.01186505
0.00712,-0.0124444
0.0072,-0.01270387
0.00728,-0.01222183
0.00736,-0.01206676
0.00744,-0.0119323
0.00752,-0.01177139
0.0076,-0.01140748
0.00768,-0.01157849
0.00776,-0.01173134
0.00784,-0.01196695
0.00792,-0.01241152
0.008,-0.01290862
0.00808,-0.01335576
0.00816,-0.01376672
0.00824,-0.01363718
0.00832,-0.01379729
0.0084,-0.01437976
0.00848,-0.01465793
0.00856,-0.0141088
0.00864,-0.01353982
0.00872,-0.01307919
0.0088,-0.01300693
0.00888,-0.01254292
0.00896,-0.01159762
0.00904,-0.01093804
0.00912,-0.01037083
0.0092,-0.01015621
0.00928,-0.01042841
0.00936,-0.01102408
0.00944,-0.0114391
0.00952,-0.01127923
0.0096,-0.01111821
0.00968,-0.01061389
0.00976,-0.01055318
0.00984,-0.01038527
0.00992,-0.009772951
0.01,-0.008736133
0.01008,-0.007996374
0.01016,-0.007462156
0.01024,-0.006885466
0.01032,-0.006139213
0.0104,-0.006200644
0.01048,-0.007111587
0.01056,-0.008190187
0.01064,-0.008618863
0.01072,-0.008186371
0.0108,-0.007994989
0.01088,-0.008211846
0.01096,-0.008140006
0.01104,-0.008331071
0.01112,-0.008579977
0.0112,-0.008191776
0.01128,-0.007921666
0.01136,-0.00777899
0.01144,-0.006919861
0.01152,-0.006641365
0.0116,-0.006771558
0.01168,-0.006088998
0.01176,-0.005763415
0.01184,-0.005771086
0.01192,-0.00500353
0.012,-0.004301611
0.01208,-0.00373933
0.01216,-0.003687717
0.01224,-0.003312733
0.01232,-0.002602555
0.0124,-0.00240012
0.01248,-0.001749461
0.01256,-0.001110862
0.01264,-0.000530788
0.01272,0.0003302334
0.0128,0.0003890888
0.01288,0.0003534934
0.01296,0.0006102058
0.01304,0.0009558887
0.01312,0.001597294
0.0132,0.002124584
0.01328,0.002498669
0.01336,0.003003752
0.01344,0.003281017
0.01352,0.003157746
0.0136,0.003724739
0.01368,0.00320047
0.01376,0.002333214
0.01384,0.001923498
0.01392,0.002019829
0.014,0.002441687
0.01408,0.002773078
0.01416,0.002833723
0.01424,0.002340433
0.01432,0.001751518
0.0144,0.001198053
0.01448,0.001405757
0.01456,0.001952372
0.01464,0.003442272
0.01472,0.004776316
0.0148,0.006026433
0.01488,0.007181074
0.01496,0.007298735
0.01504,0.006984976
0.01512,0.007128645
0.0152,0.00767451
0.01528,0.008548151
0.01536,0.00936837
0.01544,0.009322675
0.01552,0.009456472
0.0156,0.009720032
0.01568,0.009698981
0.01576,0.009621318
0.01584,0.009452418
0.01592,0.009308579
0.016,0.009732462
0.01608,0.01005535
0.01616,0.01013733
0.01624,0.01064032
0.01632,0.01147125
0.0164,0.01172335
0.01648,0.01150258
0.01656,0.01129092
0.01664,0.01158092
0.01672,0.01188435
0.0168,0.01233001
0.01688,0.01265905
0.01696,0.0125733
0.01704,0.01256623
0.01712,0.01314492
0.0172,0.01393117
0.01728,0.01433853
0.01736,0.01424307
0.01744,0.01371397
0.01752,0.01361972
0.0176,0.01413873
0.01768,0.01470753
0.01776,0.01511265
0.01784,0.01519467
0.01792,0.01470506
0.018,0.0144672
0.01808,0.0141889
0.01816,0.01334226
0.01824,0.01346426
0.01832,0.01407196
0.0184,0.01370616
0.01848,0.01265316
0.01856,0.01184223
0.01864,0.01142148
0.01872,0.01153534
0.0188,0.01192889
0.01888,0.01179368
0.01896,0.0115276
0.01904,0.01135866
0.01912,0.01062855
0.0192,0.01035197
0.01928,0.01089495
0.01936,0.01050256
0.01944,0.009464762
0.01952,0.009030306
0.0196,0.008850635
0.01968,0.008172449
0.01976,0.007352994
0.01984,0.006688733
0.01992,0.006603208
0.02,0.006200786
0.02008,0.00551967
0.02016,0.004876052
0.02024,0.004716986
0.02032,0.004917671
0.0204,0.004745283
0.02048,0.004784484
0.02056,0.005023529
0.02064,0.005857767
0.02072,0.006234965
0.0208,0.007202802
0.02088,0.007695817
0.02096,0.006868471
0.02104,0.006608063
0.02112,0.006093555
0.0212,0.00554913
0.02128,0.005315054
0.02136,0.005100961
0.02144,0.004663467
0.02152,0.004497378
0.0216,0.00415797
0.02168,0.003966401
0.02176,0.003515334
0.02184,0.003138951
0.02192,0.002828855
0.022,0.002541814
0.02208,0.003006403
0.02216,0.003296204
0.02224,0.003210185
0.02232,0.003099543
0.0224,0.003429357
0.02248,0.004018666
0.02256,0.004159287
0.02264,0.004632221
0.02272,0.004859618
0.0228,0.004567187
0.02288,0.003965892
0.02296,0.00410154
0.02304,0.004095465
0.02312,0.004128847
0.0232,0.004139207
0.02328,0.003807106
0.02336,0.002979826
0.02344,0.002054834
0.02352,0.001395811
0.0236,0.001078359
0.02368,0.0006187995
0.02376,0.0004640553
0.02384,-1.444656e-05
0.02392,-0.0007730942
0.024,-0.0009133281
0.02408,-0.0005571214
0.02416,9.727622e-05
0.02424,0.0003470456
0.02432,0.0002208466
0.0244,-0.0004148756
0.02448,-0.0007267502
0.02456,-0.0005834576
0.02464,-0.0001315786
0.02472,-0.0001694515
0.0248,-0.0008024189
0.02488,-0.001230364
0.02496,-0.001351054
0.02504,-0.00116971
0.02512,-0.00115748
0.0252,-0.001326473
0.02528,-0.001813377
0.02536,-0.002674007
0.02544,-0.003611589
0.02552,-0.003738895
0.0256,-0.003534321
0.02568,-0.003830009
0.02576,-0.004536272
0.02584,-0.005678165
0.02592,-0.006809969
0.026,-0.007770198
0.02608,-0.007895526
0.02616,-0.008626889
0.02624,-0.009915487
0.02632,-0.01149872
0.0264,-0.01278216
0.02648,-0.0134235
0.02656,-0.01298901
0.02664,-0.01293223
0.02672,-0.0132468
0.0268,-0.0140907
0.02688,-0.01429627
0.02696,-0.0138438
0.02704,-0.0133271
0.02712,-0.01285369
0.0272,-0.01326839
0.02728,-0.01346524
0.02736,-0.01384359
0.02744,-0.01492373
0.02752,-0.01535715
0.0276,-0.01525509
0.02768,-0.01497784
0.02776,-0.01483489
0.02784,-0.01464565
0.02792,-0.0144444
0.028,-0.01438252
0.02808,-0.01453908
0.02816,-0.01450733
0.02824,-0.0148258
0.02832,-0.01472342
0.0284,-0.01431001
0.02848,-0.01402959
0.02856,-0.01349613
0.02864,-0.01299016
0.02872,-0.01276162
0.0288,-0.01286727
0.02888,-0.0130254
0.02896,-0.0131458
0.02904,-0.01348535
0.02912,-0.0135397
0.0292,-0.01346804
0.02928,-0.01319196
0.02936,-0.01291864
0.02944,-0.01306985
0.02952,-0.01282877
0.0296,-0.01304236
0.02968,-0.01355614
0.02976,-0.01385553
0.02984,-0.0139643
0.02992,-0.01415848
0.03,-0.01442932
0.03008,-0.01481917
0.03016,-0.01465761
0.03024,-0.01453501
0.03032,-0.01405687
0.0304,-0.01419695
0.03048,-0.01464316
0.03056,-0.01474219
0.03064,-0.01477143
0.03072,-0.01466531
0.0308,-0.01462449
0.03088,-0.0142639
0.03096,-0.01342501
0.03104,-0.01239125
0.03112,-0.01170311
0.0312,-0.01177869
0.03128,-0.011612
0.03136,-0.01124984
0.03144,-0.01090777
0.03152,-0.01058295
0.0316,-0.009773738
0.03168,-0.009237752
0.03176,-0.008934064
0.03184,-0.008836321
0.03192,-0.008603327
0.032,-0.007715895
0.03208,-0.006496673
0.03216,-0.005439291
0.03224,-0.004637271
0.03232,-0.003895272
0.0324,-0.003549371
0.03248,-0.003424456
0.03256,-0.003803174
0.03264,-0.004508422
0.03272,-0.004856715
0.0328,-0.004285932
0.03288,-0.003961027
0.03296,-0.003785587
0.03304,-0.003756488
0.03312,-0.00361597
0.0332,-0.003242311
0.03328,-0.002999316
0.03336,-0.002130986
0.03344,-0.001381615
0.03352,-0.001141154
0.0336,-0.0004100823
0.03368,0.0005396597
0.03376,0.001441181
0.03384,0.001633236
0.03392,0.001180604
0.034,0.001708254
0.03408,0.002052984
0.03416,0.002223349
0.03424,0.003069883
0.03432,0.004171856
0.0344,0.004864393
0.03448,0.004807422
0.03456,0.005541437
0.03464,0.00582462
0.03472,0.005359594
0.0348,0.004690005
0.03488,0.004423234
0.03496,0.004164754
0.03504,0.003866816
0.03512,0.004378245
0.0352,0.004871614
0.03528,0.005621501
0.03536,0.006824751
0.03544,0.007621117
0.03552,0.007669183
0.0356,0.007624616
0.03568,0.008221163
0.03576,0.00846396
0.03584,0.008118889
0.03592,0.00850695
0.036,0.009134655
0.03608,0.00962191
0.03616,0.009805469
0.03624,0.00951824
0.03632,0.009259347
0.0364,0.009840513
0.03648,0.01090505
0.03656,0.01221809
0.03664,0.01383492
0.03672,0.01449961
0.0368,0.01502848
0.03688,0.015244
0.03696,0.01533197
0.03704,0.01562873
0.03712,0.01594298
0.0372,0.01708563
0.03728,0.01719707
0.03736,0.01679628
0.03744,0.01759603
0.03752,0.01849456
0.0376,0.01923834
0.03768,0.01991864
0.03776,0.02014823
0.03784,0.01970647
0.03792,0.01911478
0.038,0.01844914
0.03808,0.0184713
0.03816,0.01912926
0.03824,0.01952152
0.03832,0.01950471
0.0384,0.01940296
0.03848,0.01892263
0.03856,0.01870888
0.03864,0.01905506
0.03872,0.01939114
0.0388,0.01910329
0.03888,0.01852853
0.03896,0.01781826
0.03904,0.01690817
0.03912,0.01644285
0.0392,0.01655688
0.03928,0.0160578
0.03936,0.01547432
0.03944,0.01462524
0.03952,0.01428354
0.0396,0.0146811
0.03968,0.01488283
0.03976,0.01517038
0.03984,0.01497797
0.03992,0.01484826
0.04,0.01454542
0.04008,0.01402614
0.04016,0.01353667
0.04024,0.01367366
0.04032,0.01403519
0.0404,0.0145468
0.04048,0.0142234
0.04056,0.01402602
0.04064,0.01390175
0.04072,0.01350054
0.0408,0.01279502
0.04088,0.01182724
0.04096,0.01099555
0.04104,0.01042394
0.04112,0.01012926
0.0412,0.01006565
0.04128,0.009887405
0.04136,0.00967658
0.04144,0.009816058
0.04152,0.009144352
0.0416,0.008256331
0.04168,0.007798375
0.04176,0.007342561
0.04184,0.0064441
0.04192,0.00541092
0.042,0.004839533
0.04208,0.004501654
0.04216,0.00462155
0.04224,0.004849743
0.04232,0.004938066
0.0424,0.004195445
0.04248,0.00389542
0.04256,0.002810264
0.04264,0.001870241
0.04272,0.001756473
0.0428,0.001954084
0.04288,0.002514542
0.04296,0.002352771
0.04304,0.001905044
0.04312,0.001201288
0.0432,0.00046823
0.04328,0.0001085968
0.04336,-0.0005371206
0.04344,-0.0009247495
0.04352,-0.001642765
0.0436,-0.002642279
0.04368,-0.00330775
0.04376,-0.003850146
0.04384,-0.004272197
0.04392,-0.004833648
0.044,-0.005527549
0.04408,-0.006059667
0.04416,-0.006498917
0.04424,-0.006645457
0.04432,-0.006659839
0.0444,-0.006504092
0.04448,-0.006337004
0.04456,-0.006649303
0.04464,-0.00712442
0.04472,-0.007458235
0.0448,-0.008137293
0.04488,-0.008614592
0.04496,-0.008786398
0.04504,-0.009107281
0.04512,-0.009445558
0.0452,-0.009521081
0.04528,-0.009433025
0.04536,-0.009555543
0.04544,-0.009667538
0.04552,-0.01007566
0.0456,-0.01059066
0.04568,-0.01043348
0.04576,-0.00982908
0.04584,-0.009282471
0.04592,-0.009093231
0.046,-0.009863833
0.04608,-0.01047688
0.04616,-0.01169644
0.04624,-0.01240475
0.04632,-0.01278817
0.0464,-0.01323164
0.04648,-0.01359242
0.04656,-0.01407861
0.04664,-0.01462823
0.04672,-0.01495723
0.0468,-0.01516455
0.04688,-0.01601106
0.04696,-0.01649604
0.04704,-0.01652379
0.04712,-0.0163461
0.0472,-0.01644996
0.04728,-0.01655952
0.04736,-0.01672292
0.04744,-0.01670756
0.04752,-0.01709949
0.0476,-0.0175559
0.04768,-0.01720019
0.04776,-0.01743894
0.04784,-0.01745197
0.04792,-0.01772538
0.048,-0.01828449
0.04808,-0.01831422
0.04816,-0.01804107
0.04824,-0.01786991
0.04832,-0.01764871
0.0484,-0.01692956
0.04848,-0.01668795
0.04856,-0.01676727
0.04864,-0.01682377
0.04872,-0.01661718
0.0488,-0.01635596
0.04888,-0.01597857
0.04896,-0.01557493
0.04904,-0.01516767
0.04912,-0.01520269
0.0492,-0.01556466
0.04928,-0.01546972
0.04936,-0.01483762
0.04944,-0.01359106
0.04952,-0.01282422
0.0496,-0.0120318
0.04968,-0.01104342
0.04976,-0.01065898
0.04984,-0.01078704
0.04992,-0.01096323
0.05,-0.01086088
0.05008,-0.0106215
0.05016,-0.01026787
0.05024,-0.0100055
0.05032,-0.01023089
0.0504,-0.009757102
0.05048,-0.009017659
0.05056,-0.0085882
0.05064,-0.008502534
0.05072,-0.007991066
0.0508,-0.007132088
0.05088,-0.006898022
0.05096,-0.007480153
0.05104,-0.007734393
0.05112,-0.007564838
0.0512,-0.007615108
0.05128,-0.007361234
0.05136,-0.006819689
0.05144,-0.00660911
0.05152,-0.006493933
0.0516,-0.006106895
0.05168,-0.004866765
0.05176,-0.003893136
0.05184,-0.003117406
0.05192,-0.002309924
0.052,-0.002239299
0.05208,-0.002741112
0.05216,-0.00253085
0.05224,-0.00236213
0.05232,-0.002562114
0.0524,-0.002729035
0.05248,-0.003133066
0.05256,-0.003751848
0.05264,-0.004037738
0.05272,-0.002950692
0.0528,-0.002690301
0.05288,-0.002649141
0.05296,-0.001824319
0.05304,-0.0004007485
0.05312,0.0007764444
0.0532,0.001422645
0.05328,0.002094388
0.05336,0.003107324
0.05344,0.004126863
0.05352,0.003932755
0.0536,0.003707574
0.05368,0.003428068
0.05376,0.003208973
0.05384,0.003395269
0.05392,0.003745283
0.054,0.004020039
0.05408,0.004063425
0.05416,0.004280892
0.05424,0.004816977
0.05432,0.005380992
0.0544,0.006128015
0.05448,0.006599066
0.05456,0.007323564
0.05464,0.007720768
0.05472,0.007572933
0.0548,0.008317851
0.05488,0.008608298
0.05496,0.008972042
0.05504,0.009629646
0.05512,0.009957056
0.0552,0.01006374
0.05528,0.0101722
0.05536,0.01024479
0.05544,0.01032271
0.05552,0.01037908
0.0556,0.0109282
0.05568,0.0118493
0.05576,0.01255016
0.05584,0.01267208
0.05592,0.01270841
0.056,0.01262468
0.05608,0.01284403
0.05616,0.01305114
0.05624,0.01359686
0.05632,0.01415894
0.0564,0.01508359
0.05648,0.01579125
0.05656,0.01556883
0.05664,0.01573803
0.05672,0.01577126
0.0568,0.0155761
0.05688,0.01515748
0.05696,0.01546796
0.05704,0.01605208
0.05712,0.0166853
0.0572,0.01728026
0.05728,0.01764885
0.05736,0.0173091
0.05744,0.01715805
0.05752,0.01735727
0.0576,0.01796271
0.05768,0.01819358
0.05776,0.0178741
0.05784,0.01780607
0.05792,0.01742522
0.058,0.01778208
0.05808,0.01790496
0.05816,0.01815495
0.05824,0.01808742
0.05832,0.01785277
0.0584,0.01728772
0.05848,0.01656268
0.05856,0.01650616
0.05864,0.01666829
0.05872,0.01675599
0.0588,0.01693331
0.05888,0.01651626
0.05896,0.01672998
0.05904,0.01667801
0.05912,0.01679979
0.0592,0.01687758
0.05928,0.01662854
0.05936,0.01647194
0.05944,0.01623647
0.05952,0.01570874
0.0596,0.01443796
0.05968,0.01392533
0.05976,0.01408954
0.05984,0.01431219
0.05992,0.01461852
0.06,0.01485398
0.06008,0.0154814
0.06016,0.0154419
0.06024,0.01522762
0.06032,0.0145492
0.0604,0.01397407
0.06048,0.01333749
0.06056,0.01259459
0.06064,0.01205096
0.06072,0.01143817
0.0608,0.01127267
0.06088,0.01146243
0.06096,0.0108707
0.06104,0.009833915
0.06112,0.008761712
0.0612,0.008074643
0.06128,0.007348609
0.06136,0.006947228
0.06144,0.006596079
0.06152,0.005842493
0.0616,0.004993653
0.06168,0.004090077
0.06176,0.002922168
0.06184,0.001869818
0.06192,0.0007278773
0.062,-2.619466e-05
0.06208,-0.0003263041
0.06216,-0.000644228
0.06224,-0.0008148731
0.06232,-0.0009130588
0.0624,-0.0009559607
0.06248,-0.001065254
0.06256,-0.001528902
0.06264,-0.002287155
0.06272,-0.003154766
0.0628,-0.004775251
0.06288,-0.005442267
0.06296,-0.004946478
0.06304,-0.004992577
0.06312,-0.005161001
0.0632,-0.005522109
0.06328,-0.005416994
0.06336,-0.006186538
0.06344,-0.00741657
0.06352,-0.008155973
0.0636,-0.008646526
0.06368,-0.008892437
0.06376,-0.008791924
0.06384,-0.00805972
0.06392,-0.008096772
0.064,-0.007936643
0.06408,-0.007866937
0.06416,-0.008131927
0.06424,-0.007923797
0.06432,-0.008255714
0.0644,-0.008375765
0.06448,-0.008816017
0.06456,-0.009323847
0.06464,-0.009315976
0.06472,-0.009274507
0.0648,-0.009019474
0.06488,-0.009448034
0.06496,-0.009610838
0.06504,-0.00969616
0.06512,-0.01041375
0.0652,-0.01096394
0.06528,-0.0122242
0.06536,-0.01337871
0.06544,-0.01429974
0.06552,-0.01485455
0.0656,-0.01498731
0.06568,-0.01449464
0.06576,-0.01396482
0.06584,-0.01377137
0.06592,-0.01310264
0.066,-0.01299824
0.06608,-0.01315171
0.06616,-0.01367837
0.06624,-0.01381793
0.06632,-0.01411129
0.0664,-0.01403153
0.06648,-0.01351588
0.06656,-0.01287997
0.06664,-0.01276806
0.06672,-0.01288847
0.0668,-0.0129143
0.06688,-0.01276505
0.06696,-0.01284055
0.06704,-0.01302626
0.06712,-0.01271191
0.0672,-0.01204128
0.06728,-0.01177444
0.06736,-0.01154762
0.06744,-0.01135305
0.06752,-0.011172
0.0676,-0.01100404
0.06768,-0.01098296
0.06776,-0.01105353
0.06784,-0.0107562
0.06792,-0.01127739
0.068,-0.01174649
0.06808,-0.01197716
0.06816,-0.01171187
0.06824,-0.01195573
0.06832,-0.01231007
0.0684,-0.01252454
0.06848,-0.01299687
0.06856,-0.01286623
0.06864,-0.0127334
0.06872,-0.01264614
0.0688,-0.01255102
0.06888,-0.01272665
0.06896,-0.01318272
0.06904,-0.01333338
0.06912,-0.01323286
0.0692,-0.0125907
0.06928,-0.01145764
0.06936,-0.01059855
0.06944,-0.01049979
0.06952,-0.01029035
0.0696,-0.01067373
0.06968,-0.01095392
0.06976,-0.01089906
0.06984,-0.01020343
0.06992,-0.009270275
0.07,-0.00929829
0.07008,-0.009020468
0.07016,-0.008370629
0.07024,-0.008124562
0.07032,-0.008283247
0.0704,-0.008349785
0.07048,-0.008481242
0.07056,-0.008388898
0.07064,-0.00812941
0.07072,-0.008192127
0.0708,-0.008594642
0.07088,-0.008858257
0.07096,-0.00940701
0.07104,-0.010663
0.07112,-0.01204741
0.0712,-0.01274027
0.07128,-0.012741
0.07136,-0.0123209
0.07144,-0.01246998
0.07152,-0.01217354
0.0716,-0.01185306
0.07168,-0.01229025
0.07176,-0.01228088
0.07184,-0.01187532
0.07192,-0.01159217
0.072,-0.01116874
0.07208,-0.01083095
0.07216,-0.01104
0.07224,-0.01082885
0.07232,-0.01032955
0.0724,-0.01042962
0.07248,-0.01011297
0.07256,-0.009354443
0.07264,-0.00834699
0.07272,-0.007308257
0.0728,-0.006993194
0.07288,-0.007048741
0.07296,-0.006164925
0.07304,-0.004903971
0.07312,-0.003973168
0.0732,-0.002959382
0.07328,-0.002889387
0.07336,-0.002097921
0.07344,-0.001134753
0.07352,0.0003231758
0.0736,0.0009433422
0.07368,0.0007049664
0.07376,0.000641123
0.07384,0.001455099
0.07392,0.001888144
0.074,0.00230292
0.07408,0.002582343
0.07416,0.002822486
0.07424,0.003807125
0.07432,0.005007583
0.0744,0.006412412
0.07448,0.007676391
0.07456,0.008886893
0.07464,0.009692342
0.07472,0.01061137
0.0748,0.01103072
0.07488,0.01078016
0.07496,0.01044238
0.07504,0.01091785
0.07512,0.0115181
0.0752,0.01322048
0.07528,0.01501339
0.07536,0.0160206
0.07544,0.01638162
0.07552,0.01661458
0.0756,0.0162495
0.07568,0.01616778
0.07576,0.01609703
0.07584,0.01619033
0.07592,0.0162508
0.076,0.01624772
0.07608,0.01670312
0.07616,0.016571
0.07624,0.01622065
0.07632,0.01604966
0.0764,0.01591695
0.07648,0.0158875
0.07656,0.01582966
0.07664,0.0157741
0.07672,0.01571281
0.0768,0.01611874
0.07688,0.01614633
0.07696,0.01619069
0.07704,0.01604949
0.07712,0.01617552
0.0772,0.01621741
0.07728,0.01545184
0.07736,0.01545817
0.07744,0.01611581
0.07752,0.01627946
0.0776,0.01629384
0.07768,0.01632137
0.07776,0.01651101
0.07784,0.01678352
0.07792,0.01662911
0.078,0.01688176
0.07808,0.01754262
0.07816,0.01753216
0.07824,0.01758681
0.07832,0.01744976
0.0784,0.01698408
0.07848,0.01660694
0.07856,0.01615413
0.07864,0.01598586
0.07872,0.01601681
0.0788,0.01643033
0.07888,0.01667797
0.07896,0.01670101
0.07904,0.01644891
0.07912,0.01627107
0.0792,0.01618423
0.07928,0.01631368
0.07936,0.0155165
0.07944,0.01426191
0.07952,0.01323457
0.0796,0.01251361
0.07968,0.01246556
0.07976,0.01257333
0.07984,0.01223768
0.07992,0.01265902
0.08,0.01275139
0.08008,0.01241303
0.08016,0.01153223
0.08024,0.01120715
0.08032,0.01118027
0.0804,0.0115599
0.08048,0.01148929
0.08056,0.01121026
0.08064,0.0112487
0.08072,0.01147951
0.0808,0.01156434
0.08088,0.01141287
0.08096,0.01103681
0.08104,0.01059907
0.08112,0.009975675
0.0812,0.009492018
0.08128,0.009246865
0.08136,0.008560588
0.08144,0.007720546
0.08152,0.00675527
0.0816,0.006676116
0.08168,0.007048866
0.08176,0.00678455
0.08184,0.006581513
0.08192,0.006076944
0.082,0.005144879
0.08208,0.004845377
0.08216,0.004326675
0.08224,0.004230208
0.08232,0.004365203
0.0824,0.004527092
0.08248,0.004604359
0.08256,0.003926332
0.08264,0.002537739
0.08272,0.001431383
0.0828,0.001254625
0.08288,0.0008964139
0.08296,0.000418357
0.08304,-0.0004669376
0.08312,-0.001278186
0.0832,-0.002020359
0.08328,-0.002752428
0.08336,-0.003501875
0.08344,-0.004314107
0.08352,-0.005348431
0.0836,-0.005866894
0.08368,-0.006021392
0.08376,-0.006237727
0.08384,-0.006573248
0.08392,-0.006310557
0.084,-0.005846458
0.08408,-0.00626534
0.08416,-0.006708821
0.08424,-0.007490566
0.08432,-0.008074889
0.0844,-0.008847199
0.08448,-0.00949902
0.08456,-0.009921796
0.08464,-0.01039658
0.08472,-0.0108311
0.0848,-0.01146389
0.08488,-0.01192512
0.08496,-0.01213646
0.08504,-0.01282436
0.08512,-0.01299447
0.0852,-0.0131721
0.08528,-0.0130744
0.08536,-0.01281395
0.08544,-0.01260631
0.08552,-0.01252205
0.0856,-0.01276671
0.08568,-0.01219682
0.08576,-0.01203833
0.08584,-0.01243501
0.08592,-0.01316669
0.086,-0.0133125
0.08608,-0.01282356
0.08616,-0.01198563
0.08624,-0.0116732
0.08632,-0.01199945
0.0864,-0.01172041
0.08648,-0.01162967
0.08656,-0.01164613
0.08664,-0.01220799
0.08672,-0.01268562
0.0868,-0.01263212
0.08688,-0.01329102
0.08696,-0.01387772
0.08704,-0.01436634
0.08712,-0.01500451
0.0872,-0.01561706
0.08728,-0.01631477
0.08736,-0.01659113
0.08744,-0.01643467
0.08752,-0.01671201
0.0876,-0.01673886
0.08768,-0.01611804
0.08776,-0.01514244
0.08784,-0.01459762
0.08792,-0.01466032
0.088,-0.01519092
0.08808,-0.0161486
0.08816,-0.01631007
0.08824,-0.01558646
0.08832,-0.01505389
0.0884,-0.01475272
0.08848,-0.0142531
0.08856,-0.01377695
0.08864,-0.01419741
0.08872,-0.01483372
0.0888,-0.0156013
0.08888,-0.0157789
0.08896,-0.0155031
0.08904,-0.01542141
0.08912,-0.01498026
0.0892,-0.01463972
0.08928,-0.01440271
0.08936,-0.01443611
0.08944,-0.01402504
0.08952,-0.01397553
0.0896,-0.01405257
0.08968,-0.01388809
0.08976,-0.01436095
0.08984,-0.01474529
0.08992,-0.01539801
0.09,-0.01555294
0.09008,-0.0157019
0.09016,-0.01555278
0.09024,-0.01515534
0.09032,-0.01518749
0.0904,-0.01498772
0.09048,-0.01507347
0.09056,-0.01507235
0.09064,-0.01529145
0.09072,-0.01517596
0.0908,-0.01447187
0.09088,-0.01435776
0.09096,-0.01471013
0.09104,-0.01402109
0.09112,-0.01316146
0.0912,-0.01239211
0.09128,-0.01187851
0.09136,-0.01134276
0.09144,-0.01042205
0.09152,-0.009478021
0.0916,-0.008349014
0.09168,-0.007045283
0.09176,-0.006052266
0.09184,-0.004892162
0.09192,-0.004206932
0.092,-0.00324717
0.09208,-0.002159251
0.09216,-0.001512097
0.09224,-0.001361798
0.09232,-0.001807088
0.0924,-0.001545561
0.09248,-0.0005382192
0.09256,-0.0005560757
0.09264,-0.001461227
0.09272,-0.00224764
0.0928,-0.002676168
0.09288,-0.002468069
0.09296,-0.002167868
0.09304,-0.001495292
0.09312,-0.0009341728
0.0932,-0.0009074458
0.09328,-0.0005714881
0.09336,-0.0002647428
0.09344,-0.0002165731
0.09352,-0.0005382468
0.0936,-0.0002610871
0.09368,0.0005101256
0.09376,0.0007110765
0.09384,0.0007808193
0.09392,0.001167853
0.094,0.001836276
0.09408,0.001970042
0.09416,0.002329716
0.09424,0.002971306
0.09432,0.003336591
0.0944,0.003948134
0.09448,0.004841506
0.09456,0.005616704
0.09464,0.006190294
0.09472,0.006927786
0.0948,0.008106245
0.09488,0.008677565
0.09496,0.009483106
0.09504,0.01019585
0.09512,0.01092406
0.0952,0.0118164
0.09528,0.01209757
0.09536,0.01246781
0.09544,0.01317702
0.09552,0.01354609
0.0956,0.01387356
0.09568,0.01366089
0.09576,0.01356812
0.09584,0.01373526
0.09592,0.01454062
0.096,0.01561305
0.09608,0.01631807
0.09616,0.01692098
0.09624,0.01687756
0.09632,0.0174423
0.0964,0.01789564
0.09648,0.01810479
0.09656,0.0183431
0.09664,0.0181151
0.09672,0.01748501
0.0968,0.01678433
0.09688,0.01622147
0.09696,0.01609367
0.09704,0.01625218
0.09712,0.01594111
0.0972,0.01537865
0.09728,0.01478399
0.09736,0.01452035
0.09744,0.01468526
0.09752,0.01532008
0.0976,0.01577613
0.09768,0.01639406
0.09776,0.01694933
0.09784,0.0179591
0.09792,0.01878938
0.098,0.01870991
0.09808,0.01849173
0.09816,0.01833874
0.09824,0.01801056
0.09832,0.01770067
0.0984,0.01728967
0.09848,0.017294
0.09856,0.01729458
0.09864,0.0176635
0.09872,0.01808492
0.0988,0.01870171
0.09888,0.01914798
0.09896,0.01856926
0.09904,0.01847338
0.09912,0.01838271
0.0992,0.01766246
0.09928,0.01678283
0.09936,0.01621045
0.09944,0.01580458
0.09952,0.01540547
0.0996,0.01573916
0.09968,0.01638353
0.09976,0.01652674
0.09984,0.01628702
0.09992,0.01602718
0.1,0.01578336
0.10008,0.01595153
0.10016,0.01646934
0.10024,0.01635938
0.10032,0.01627905
0.1004,0.01618887
0.10048,0.01578474
0.10056,0.01568938
0.10064,0.01601606
0.10072,0.01624713
0.1008,0.01621768
0.10088,0.01569839
0.10096,0.01536995
0.10104,0.01535956
0.10112,0.01563545
0.1012,0.01531006
0.10128,0.01433927
0.10136,0.01308659
0.10144,0.01192506
0.10152,0.01161073
0.1016,0.01152372
0.10168,0.01127701
0.10176,0.0109819
0.10184,0.01071611
0.10192,0.01004535
0.102,0.009087872
0.10208,0.007653396
0.10216,0.006824065
0.10224,0.006554114
0.10232,0.006162231
0.1024,0.005561815
0.10248,0.004930196
0.10256,0.003982859
0.10264,0.003061383
0.10272,0.002585311
0.1028,0.00183037
0.10288,0.0007737656
0.10296,-0.000804278
0.10304,-0.002117995
0.10312,-0.002638135
0.1032,-0.002744082
0.10328,-0.003360192
0.10336,-0.003482911
0.10344,-0.003687455
0.10352,-0.004314606
0.1036,-0.005544243
0.10368,-0.006543951
0.10376,-0.006770255
0.10384,-0.006737336
0.10392,-0.007917703
0.104,-0.008708616
0.10408,-0.009041158
0.10416,-0.009607095
0.10424,-0.01050909
0.10432,-0.01084786
0.1044,-0.01055504
0.10448,-0.0106802
0.10456,-0.01083781
0.10464,-0.01088044
0.10472,-0.01054754
0.1048,-0.01033538
0.10488,-0.01100165
0.10496,-0.01130167
0.10504,-0.01211874
0.10512,-0.01275409
0.1052,-0.01304718
0.10528,-0.01378706
0.10536,-0.01521101
0.10544,-0.01610905
0.10552,-0.01612879
0.1056,-0.01610239
0.10568,-0.01625187
0.10576,-0.01681026
0.10584,-0.01716983
0.10592,-0.01754957
0.106,-0.01746632
0.10608,-0.01617482
0.10616,-0.01466763
0.10624,-0.01410411
0.10632,-0.01382545
0.1064,-0.01369538
0.10648,-0.0136566
0.10656,-0.01364016
0.10664,-0.01355119
0.10672,-0.01400403
0.1068,-0.01430796
0.10688,-0.01504474
0.10696,-0.01622743
0.10704,-0.01647857
0.10712,-0.0161237
0.1072,-0.01568058
0.10728,-0.01547907
0.10736,-0.01555425
0.10744,-0.01558489
0.10752,-0.01594247
0.1076,-0.01633537
0.10768,-0.01633783
0.10776,-0.01586288
0.10784,-0.01520563
0.10792,-0.01513268
0.108,-0.01535364
0.10808,-0.01540298
0.10816,-0.01559993
0.10824,-0.01512432
0.10832,-0.01489745
0.1084,-0.01496856
0.10848,-0.01503768
0.10856,-0.01491869
0.10864,-0.01546829
0.10872,-0.01563955
0.1088,-0.01536605
0.10888,-0.0155354
0.10896,-0.01609573
0.10904,-0.01729329
0.10912,-0.01740602
0.1092,-0.01673585
0.10928,-0.01581453
0.10936,-0.01549541
0.10944,-0.01567741
0.10952,-0.01557808
0.1096,-0.01474532
0.10968,-0.01476699
0.10976,-0.0145395
0.10984,-0.01377494
0.10992,-0.0137745
0.11,-0.01328845
0.11008,-0.01304152
0.11016,-0.01324505
0.11024,-0.01394473
0.11032,-0.01422846
0.1104,-0.013745
0.11048,-0.01363403
0.11056,-0.01358255
0.11064,-0.01338212
0.11072,-0.01293825
0.1108,-0.01209332
0.11088,-0.01178405
0.11096,-0.01195056
0.11104,-0.01148306
0.11112,-0.01105278
0.1112,-0.01090346
0.11128,-0.01041506
0.11136,-0.01011685
0.11144,-0.01006128
0.11152,-0.01000598
0.1116,-0.009628411
0.11168,-0.008902138
0.11176,-0.007508663
0.11184,-0.006197604
0.11192,-0.005784358
0.112,-0.006327397
0.11208,-0.006510597
0.11216,-0.006159895
0.11224,-0.00576763
0.11232,-0.005484425
0.1124,-0.004656973
0.11248,-0.003953969
0.11256,-0.003374605
0.11264,-0.003128599
0.11272,-0.002669537
0.1128,-0.001810009
0.11288,-0.001344497
0.11296,-0.000657487
0.11304,0.0005175141
0.11312,0.001678845
0.1132,0.002268082
0.11328,0.001975708
0.11336,0.001698677
0.11344,0.001724355
0.11352,0.001976896
0.1136,0.002354705
0.11368,0.002448725
0.11376,0.00237792
0.11384,0.002460444
0.11392,0.002571619
0.114,0.002664583
0.11408,0.004005068
0.11416,0.005228588
0.11424,0.005505691
0.11432,0.005684095
0.1144,0.005512974
0.11448,0.005367723
0.11456,0.005438803
0.11464,0.005628616
0.11472,0.005936305
0.1148,0.006789317
0.11488,0.00732494
0.11496,0.007943015
0.11504,0.008465872
0.11512,0.008698812
0.1152,0.008906563
0.11528,0.00989329
0.11536,0.01060632
0.11544,0.01104227
0.11552,0.01126167
0.1156,0.01142775
0.11568,0.01160006
0.11576,0.0123258
0.11584,0.01327853
0.11592,0.01356298
0.116,0.01385854
0.11608,0.01443139
0.11616,0.01446333
0.11624,0.01476037
0.11632,0.01545566
0.1164,0.01544511
0.11648,0.0144154
0.11656,0.0135923
0.11664,0.01350019
0.11672,0.01370812
0.1168,0.01384202
0.11688,0.01386564
0.11696,0.0133764
0.11704,0.01314253
0.11712,0.01302748
0.1172,0.01289797
0.11728,0.01288729
0.11736,0.01323702
0.11744,0.01371665
0.11752,0.01452478
0.1176,0.01563534
0.11768,0.01616912
0.11776,0.01563456
0.11784,0.01519334
0.11792,0.01520714
0.118,0.01538635
0.11808,0.01610319
0.11816,0.01671072
0.11824,0.01635776
0.11832,0.01551294
0.1184,0.01456448
0.11848,0.01396809
0.11856,0.01379734
0.11864,0.01393512
0.11872,0.01387699
0.1188,0.01403131
0.11888,0.01379866
0.11896,0.01325673
0.11904,0.01300986
0.11912,0.01341313
0.1192,0.01398488
0.11928,0.01445683
0.11936,0.01418229
0.11944,0.01373269
0.11952,0.01304658
0.1196,0.01205827
0.11968,0.01171702
0.11976,0.01151564
0.11984,0.01102161
0.11992,0.01056543
0.12,0.01040543
0.12008,0.01095435
0.12016,0.01192779
0.12024,0.01228365
0.12032,0.01182405
0.1204,0.01095799
0.12048,0.01100935
0.12056,0.01167477
0.12064,0.01162696
0.12072,0.01058923
0.1208,0.009613991
0.12088,0.008980258
0.12096,0.008348494
0.12104,0.008014366
0.12112,0.007964903
0.1212,0.007522744
0.12128,0.007760219
0.12136,0.007727769
0.12144,0.007742355
0.12152,0.008103481
0.1216,0.008363231
0.12168,0.008509794
0.12176,0.008490878
0.12184,0.007774566
0.12192,0.006384298
0.122,0.005618236
0.12208,0.005080764
0.12216,0.004540002
0.12224,0.003549872
0.12232,0.00276605
0.1224,0.001892996
0.12248,0.001254692
0.12256,0.001171644
0.12264,0.001240056
0.12272,0.001483578
0.1228,0.001351552
0.12288,0.0008249998
0.12296,0.0003574558
0.12304,0.0003098935
0.12312,0.0005320863
0.1232,-0.0004211936
0.12328,-0.001461374
0.12336,-0.001835702
0.12344,-0.001826709
0.12352,-0.002258415
0.1236,-0.002557591
0.12368,-0.003025035
0.12376,-0.002887068
0.12384,-0.003412291
0.12392,-0.003891392
0.124,-0.00434483
0.12408,-0.004703703
0.12416,-0.005333121
0.12424,-0.00575146
0.12432,-0.006277364
0.1244,-0.006810107
0.12448,-0.006571618
0.12456,-0.006977873
0.12464,-0.00750715
0.12472,-0.008224138
0.1248,-0.00831317
0.12488,-0.00879607
0.12496,-0.009274173
0.12504,-0.008840406
0.12512,-0.009055763
0.1252,-0.009961301
0.12528,-0.01028458
0.12536,-0.01044626
0.12544,-0.01073925
0.12552,-0.01115103
0.1256,-0.01117488
0.12568,-0.01152791
0.12576,-0.011934
0.12584,-0.01205124
0.12592,-0.01202549
0.126,-0.0121581
0.12608,-0.01218552
0.12616,-0.0121461
0.12624,-0.01247496
0.12632,-0.01341621
0.1264,-0.0136259
0.12648,-0.01353362
0.12656,-0.01343413
0.12664,-0.013845
0.12672,-0.014483
0.1268,-0.01424152
0.12688,-0.01435286
0.12696,-0.01509716
0.12704,-0.01539124
0.12712,-0.01507316
0.1272,-0.01476098
0.12728,-0.01448009
0.12736,-0.01497892
0.12744,-0.01499393
0.12752,-0.0150707
0.1276,-0.01616997
0.12768,-0.01691324
0.12776,-0.01732886
0.12784,-0.01754274
0.12792,-0.01839208
0.128,-0.01825539
0.12808,-0.01712239
0.12816,-0.01634919
0.12824,-0.01622066
0.12832,-0.01613242
0.1284,-0.01601742
0.12848,-0.01555808
0.12856,-0.01553277
0.12864,-0.01457337
0.12872,-0.01371545
0.1288,-0.01397896
0.12888,-0.01367563
0.12896,-0.0133942
0.12904,-0.01336969
0.12912,-0.01346428
0.1292,-0.01388129
0.12928,-0.01419367
0.12936,-0.01413358
0.12944,-0.01446374
0.12952,-0.01440139
0.1296,-0.01423443
0.12968,-0.01401361
0.12976,-0.01397157
0.12984,-0.01370957
0.12992,-0.01293806
0.13,-0.01195258
0.13008,-0.01064391
0.13016,-0.01001771
0.13024,-0.009200285
0.13032,-0.008130886
0.1304,-0.006880151
0.13048,-0.006150231
0.13056,-0.005955484
0.13064,-0.006011953
0.13072,-0.005959475
0.1308,-0.006067367
0.13088,-0.006669505
0.13096,-0.007166579
0.13104,-0.007299162
0.13112,-0.007364442
0.1312,-0.007612323
0.13128,-0.007384326
0.13136,-0.007012994
0.13144,-0.006599737
0.13152,-0.006484207
0.1316,-0.00599113
0.13168,-0.005295231
0.13176,-0.004667194
0.13184,-0.003842277
0.13192,-0.00265703
0.132,-0.001845047
0.13208,-0.001510093
0.13216,-0.001804939
0.13224,-0.002887511
0.13232,-0.00335202
0.1324,-0.003191482
0.13248,-0.002913003
0.13256,-0.002157179
0.13264,-0.001389126
0.13272,-0.0003769828
0.1328,0.0007392887
0.13288,0.00113656
0.13296,0.0005470405
0.13304,0.0002898217
0.13312,0.0004780215
0.1332,0.001147848
0.13328,0.002285024
0.13336,0.002936832
0.13344,0.003578609
0.13352,0.004834124
0.1336,0.006092402
0.13368,0.007201867
0.13376,0.008443792
0.13384,0.009967539
0.13392,0.01024716
0.134,0.0100211
0.13408,0.01046665
0.13416,0.01079439
0.13424,0.01084023
0.13432,0.01161058
0.1344,0.01189708
0.13448,0.01218769
0.13456,0.01291342
0.13464,0.01408937
0.13472,0.01442751
0.1348,0.01403822
0.13488,0.01369382
0.13496,0.01332467
0.13504,0.01283527
0.13512,0.01256155
0.1352,0.01259948
0.13528,0.01260947
0.13536,0.01287658
0.13544,0.01295337
0.13552,0.01289888
0.1356,0.01297045
0.13568,0.01329804
0.13576,0.01358012
0.13584,0.01409876
0.13592,0.01471334
0.136,0.01500582
0.13608,0.01502617
0.13616,0.01511658
0.13624,0.01577648
0.13632,0.01650557
0.1364,0.01678417
0.13648,0.01687867
0.13656,0.01791328
0.13664,0.01950158
0.13672,0.02010929
0.1368,0.01983184
0.13688,0.01950428
0.13696,0.01955107
0.13704,0.02002691
0.13712,0.02008578
0.1372,0.02019785
0.13728,0.02012669
0.13736,0.01961713
0.13744,0.01944637
0.13752,0.019494
0.1376,0.01877465
0.13768,0.01782463
0.13776,0.0171785
0.13784,0.01713333
0.13792,0.01778424
0.138,0.01778581
0.13808,0.0172558
0.13816,0.01643903
0.13824,0.01534737
0.13832,0.01440469
0.1384,0.01318345
0.13848,0.01235412
0.13856,0.01151728
0.13864,0.01099027
0.13872,0.009988664
0.1388,0.009011839
0.13888,0.009213634
0.13896,0.009034533
0.13904,0.008626511
0.13912,0.00867
0.1392,0.008862352
0.13928,0.008284577
0.13936,0.007898565
0.13944,0.007704245
0.13952,0.007316986
0.1396,0.006998881
0.13968,0.007110552
0.13976,0.006695255
0.13984,0.006387881
0.13992,0.005938496
0.14,0.005260425
0.14008,0.005495794
0.14016,0.005169797
0.14024,0.00526379
0.14032,0.004713126
0.1404,0.003626346
0.14048,0.003218788
0.14056,0.002784393
0.14064,0.002274164
0.14072,0.002165143
0.1408,0.002272274
0.14088,0.002361934
0.14096,0.002416189
0.14104,0.001870459
0.14112,0.001097018
0.1412,0.0006782771
0.14128,-7.716384e-05
0.14136,-0.0008468838
0.14144,-0.001233542
0.14152,-0.001864159
0.1416,-0.002129868
0.14168,-0.00268985
0.14176,-0.002874027
0.14184,-0.002984573
0.14192,-0.00320566
0.142,-0.002939848
0.14208,-0.002204625
0.14216,-0.002358633
0.14224,-0.002401678
0.14232,-0.002215112
0.1424,-0.002072036
0.14248,-0.001934368
0.14256,-0.001317893
0.14264,-0.0005862414
0.14272,-0.0005803332
0.1428,-0.0007712604
0.14288,-0.000903989
0.14296,-0.0008002732
0.14304,-0.001353159
0.14312,-0.001335033
0.1432,-0.0009870598
0.14328,-0.001128433
0.14336,-0.001554154
0.14344,-0.002012302
0.14352,-0.002748821
0.1436,-0.003411668
0.14368,-0.003701817
0.14376,-0.003478043
0.14384,-0.00329604
0.14392,-0.002955353
0.144,-0.003162683
0.14408,-0.003605089
0.14416,-0.003676662
0.14424,-0.003719756
0.14432,-0.003847387
0.1444,-0.004566104
0.14448,-0.005435635
0.14456,-0.005913895
0.14464,-0.006089312
0.14472,-0.006070009
0.1448,-0.00600487
0.14488,-0.005604457
0.14496,-0.00555069
0.14504,-0.005729346
0.14512,-0.006139945
0.1452,-0.006269542
0.14528,-0.006618927
0.14536,-0.007476882
0.14544,-0.007593302
0.14552,-0.007471487
0.1456,-0.007166586
0.14568,-0.007638723
0.14576,-0.008596389
0.14584,-0.008244474
0.14592,-0.00802116
0.146,-0.00797759
0.14608,-0.008195283
0.14616,-0.008886301
0.14624,-0.008790255
0.14632,-0.008174708
0.1464,-0.007745996
0.14648,-0.007914174
0.14656,-0.008572941
0.14664,-0.009424523
0.14672,-0.009975437
0.1468,-0.01061658
0.14688,-0.01137942
0.14696,-0.01226283
0.14704,-0.01271132
0.14712,-0.01316216
0.1472,-0.01323893
0.14728,-0.01336685
0.14736,-0.01286318
0.14744,-0.01279523
0.14752,-0.01341399
0.1476,-0.01354515
0.14768,-0.01310626
0.14776,-0.01222312
0.14784,-0.01190391
0.14792,-0.01212729
0.148,-0.01249054
0.14808,-0.01233218
0.14816,-0.01266825
0.14824,-0.01214758
0.14832,-0.01203611
0.1484,-0.01239291
0.14848,-0.01207256
0.14856,-0.01185259
0.14864,-0.01226986
0.14872,-0.01244088
0.1488,-0.01273439
0.14888,-0.01303929
0.14896,-0.01262562
0.14904,-0.01205764
0.14912,-0.01166112
0.1492,-0.01149518
0.14928,-0.01147791
0.14936,-0.01198507
0.14944,-0.01271887
0.14952,-0.01302792
0.1496,-0.0137804
0.14968,-0.01410639
0.14976,-0.01379709
0.14984,-0.01365437
0.14992,-0.01361336
0.15,-0.01348561
0.15008,-0.01277984
0.15016,-0.01264131
0.15024,-0.01269623
0.15032,-0.0120268
0.1504,-0.01109549
0.15048,-0.01031925
0.15056,-0.009955905
0.15064,-0.0100255
0.15072,-0.009441108
0.1508,-0.008544917
0.15088,-0.007904096
0.15096,-0.007836279
0.15104,-0.008035556
0.15112,-0.007853113
0.1512,-0.007775618
0.15128,-0.008368528
0.15136,-0.008580916
0.15144,-0.007999494
0.15152,-0.007279515
0.1516,-0.006688705
0.15168,-0.005416733
0.15176,-0.004826849
0.15184,-0.005367837
0.15192,-0.005942699
0.152,-0.006839039
0.15208,-0.007537804
0.15216,-0.007199571
0.15224,-0.006416475
0.15232,-0.005428111
0.1524,-0.004632023
0.15248,-0.003697872
0.15256,-0.003062321
0.15264,-0.002424483
0.15272,-0.001616207
0.1528,-0.0006460585
0.15288,0.0002683359
0.15296,0.0003489173
0.15304,-0.0002278839
0.15312,-0.0004644522
0.1532,-0.0006273849
0.15328,-0.0003455351
0.15336,0.0004452358
0.15344,0.001045161
0.15352,0.001274102
0.1536,0.001186879
0.15368,0.001465783
0.15376,0.001610584
0.15384,0.001640666
0.15392,0.002388787
0.154,0.003599746
0.15408,0.004741181
0.15416,0.005647996
0.15424,0.006485592
0.15432,0.007121162
0.1544,0.007515151
0.15448,0.007486711
0.15456,0.00761375
0.15464,0.007589434
0.15472,0.0077072
0.1548,0.007725379
0.15488,0.008129013
0.15496,0.008618249
0.15504,0.009293358
0.15512,0.009805696
0.1552,0.009924358
0.15528,0.01036199
0.15536,0.01154993
0.15544,0.01277698
0.15552,0.01368141
0.1556,0.01449415
0.15568,0.01507787
0.15576,0.01491737
0.15584,0.01478927
0.15592,0.01576178
0.156,0.01646917
0.15608,0.01710389
0.15616,0.01718444
0.15624,0.01739252
0.15632,0.01764303
0.1564,0.01757701
0.15648,0.01728987
0.15656,0.01728678
0.15664,0.0174935
0.15672,0.01796715
0.1568,0.01821689
0.15688,0.01821503
0.15696,0.01736096
0.15704,0.01701775
0.15712,0.01769005
0.1572,0.01763271
0.15728,0.0177126
0.15736,0.01859091
0.15744,0.01877056
0.15752,0.01859094
0.1576,0.018483
0.15768,0.0180799
0.15776,0.01798564
0.15784,0.01765695
0.15792,0.01703215
0.158,0.01632351
0.15808,0.01606931
0.15816,0.01579138
0.15824,0.01558142
0.15832,0.01552934
0.1584,0.01541289
0.15848,0.01496323
0.15856,0.01427593
0.15864,0.01364443
0.15872,0.01309678
0.1588,0.01304782
0.15888,0.01277197
0.15896,0.01190334
0.15904,0.01052594
0.15912,0.009419745
0.1592,0.008858729
0.15928,0.008200112
0.15936,0.007949788
0.15944,0.007910421
0.15952,0.007781668
0.1596,0.008022052
0.15968,0.008360575
0.15976,0.007565213
0.15984,0.007468145
0.15992,0.008168158
0.16,0.008174844
0.16008,0.007848416
0.16016,0.007341358
0.16024,0.005826319
0.16032,0.004741769
0.1604,0.004601013
0.16048,0.005110123
0.16056,0.004697612
0.16064,0.003645483
0.16072,0.003581475
0.1608,0.003962569
0.16088,0.004796722
0.16096,0.004782245
0.16104,0.004344371
0.16112,0.004396598
0.1612,0.005322254
0.16128,0.005593484
0.16136,0.005915156
0.16144,0.005914608
0.16152,0.005514753
0.1616,0.00551273
0.16168,0.005897694
0.16176,0.006517884
0.16184,0.006593558
0.16192,0.006386936
0.162,0.006334858
0.16208,0.005839076
0.16216,0.005574472
0.16224,0.005486746
0.16232,0.006302313
0.1624,0.006433837
0.16248,0.00594221
0.16256,0.004877834
0.16264,0.004533571
0.16272,0.004155781
0.1628,0.003571572
0.16288,0.003255331
0.16296,0.002526056
0.16304,0.001769857
0.16312,0.00196943
0.1632,0.002866587
0.16328,0.003172726
0.16336,0.003195706
0.16344,0.002380063
0.16352,0.001464245
0.1636,0.0001123591
0.16368,-0.001371267
0.16376,-0.002949952
0.16384,-0.004125983
0.16392,-0.004942545
0.164,-0.0057043
0.16408,-0.006258127
0.16416,-0.006362803
0.16424,-0.006423197
0.16432,-0.00661235
0.1644,-0.00671865
0.16448,-0.00680986
0.16456,-0.007188346
0.16464,-0.007754433
0.16472,-0.00789002
0.1648,-0.00742433
0.16488,-0.006918414
0.16496,-0.006296708
0.16504,-0.006756347
0.16512,-0.007466672
0.1652,-0.007929367
0.16528,-0.007944875
0.16536,-0.007592839
0.16544,-0.00765852
0.16552,-0.008299656
0.1656,-0.008546287
0.16568,-0.008948508
0.16576,-0.008914611
0.16584,-0.009199039
0.16592,-0.009954394
0.166,-0.0106005
0.16608,-0.01101717
0.16616,-0.01125779
0.16624,-0.01152324
0.16632,-0.01185989
0.1664,-0.01278834
0.16648,-0.01338399
0.16656,-0.01400416
0.16664,-0.0151336
0.16672,-0.01609268
0.1668,-0.01668917
0.16688,-0.01706512
0.16696,-0.01765963
0.16704,-0.01836411
0.16712,-0.01889575
0.1672,-0.01956513
0.16728,-0.01938162
0.16736,-0.01880798
0.16744,-0.01878146
0.16752,-0.01898794
0.1676,-0.01908703
0.16768,-0.01927249
0.16776,-0.01986829
0.16784,-0.02045944
0.16792,-0.02093588
0.168,-0.02079521
0.16808,-0.02048393
0.16816,-0.02016464
0.16824,-0.01986534
0.16832,-0.02013274
0.1684,-0.01991957
0.16848,-0.01959702
0.16856,-0.01943213
0.16864,-0.01945133
0.16872,-0.0189751
0.1688,-0.01827027
0.16888,-0.0181313
0.16896,-0.01873702
0.16904,-0.01937303
0.16912,-0.01965884
0.1692,-0.01894774
0.16928,-0.01827905
0.16936,-0.01775146
0.16944,-0.01788033
0.16952,-0.01777165
0.1696,-0.01754298
0.16968,-0.01714713
0.16976,-0.01632484
0.16984,-0.01532132
0.16992,-0.01460735
0.17,-0.01387762
0.17008,-0.01361713
0.17016,-0.01292551
0.17024,-0.01275111
0.17032,-0.01260438
0.1704,-0.01200295
0.17048,-0.01087956
0.17056,-0.009788479
0.17064,-0.009769225
0.17072,-0.01004714
0.1708,-0.01034454
0.17088,-0.009688056
0.17096,-0.008975009
0.17104,-0.008749624
0.17112,-0.008852131
0.1712,-0.008822505
0.17128,-0.008461849
0.17136,-0.008255693
0.17144,-0.008117802
0.17152,-0.007748878
0.1716,-0.007324261
0.17168,-0.007222588
0.17176,-0.006638826
0.17184,-0.00688583
0.17192,-0.007100966
0.172,-0.0067452
0.17208,-0.006355893
0.17216,-0.005095922
0.17224,-0.003980313
0.17232,-0.003451842
0.1724,-0.002689312
0.17248,-0.00189339
0.17256,-0.001063824
0.17264,-0.0006452055
0.17272,-0.0005754335
0.1728,-0.0004520904
0.17288,-0.0002168745
0.17296,0.0001216175
0.17304,0.0008164089
0.17312,0.001605985
0.1732,0.001924749
0.17328,0.001909736
0.17336,0.001396645
0.17344,0.0003611869
0.17352,-0.0001793581
0.1736,0.0001546236
0.17368,0.00100961
0.17376,0.00196644
0.17384,0.003054922
0.17392,0.003081088
0.174,0.003133924
0.17408,0.003303215
0.17416,0.003829621
0.17424,0.004481873
0.17432,0.005346775
0.1744,0.006185221
0.17448,0.006962962
0.17456,0.007082612
0.17464,0.007305157
0.17472,0.007896116
0.1748,0.007793766
0.17488,0.008404337
0.17496,0.008827605
0.17504,0.008698921
0.17512,0.007859685
0.1752,0.007750225
0.17528,0.007977235
0.17536,0.008371589
0.17544,0.008748432
0.17552,0.008526839
0.1756,0.008630857
0.17568,0.008669237
0.17576,0.008372924
0.17584,0.008672043
0.17592,0.00951289
0.176,0.009431252
0.17608,0.009470582
0.17616,0.0100121
0.17624,0.01064551
0.17632,0.0109621
0.1764,0.01126789
0.17648,0.01158188
0.17656,0.01202748
0.17664,0.01278106
0.17672,0.01357227
0.1768,0.01351797
0.17688,0.01358575
0.17696,0.01340101
0.17704,0.01313038
0.17712,0.01339003
0.1772,0.01365009
0.17728,0.01375628
0.17736,0.01419312
0.17744,0.01437101
0.17752,0.01407528
0.1776,0.01371577
0.17768,0.01353085
0.17776,0.01279778
0.17784,0.01245917
0.17792,0.01233585
0.178,0.01236263
0.17808,0.01273511
0.17816,0.01345604
0.17824,0.01400828
0.17832,0.01371125
0.1784,0.01314544
0.17848,0.0129439
0.17856,0.01343699
0.17864,0.01439247
0.17872,0.01540423
0.1788,0.01596045
0.17888,0.01641855
0.17896,0.01684868
0.17904,0.01698701
0.17912,0.01721394
0.1792,0.01768595
0.17928,0.01859722
0.17936,0.01846174
0.17944,0.01782472
0.17952,0.01755379
0.1796,0.01803537
0.17968,0.01807057
0.17976,0.01788762
0.17984,0.01808359
0.17992,0.01851587
0.18,0.01862861
0.18008,0.01773183
0.18016,0.01719713
0.18024,0.0167518
0.18032,0.01637768
0.1804,0.01577697
0.18048,0.01524928
0.18056,0.01467157
0.18064,0.01329679
0.18072,0.01242336
0.1808,0.01195167
0.18088,0.01112139
0.18096,0.009937326
0.18104,0.009121065
0.18112,0.009381949
0.1812,0.009307028
0.18128,0.008784076
0.18136,0.00778369
0.18144,0.007146314
0.18152,0.006656841
0.1816,0.005984802
0.18168,0.005275799
0.18176,0.004461342
0.18184,0.004186865
0.18192,0.004537425
0.182,0.004648659
0.18208,0.004091997
0.18216,0.00311373
0.18224,0.002518138
0.18232,0.002300297
0.1824,0.001780173
0.18248,0.001259952
0.18256,4.789531e-05
0.18264,-0.001333253
0.18272,-0.0025462
0.1828,-0.003186217
0.18288,-0.00387863
0.18296,-0.004208484
0.18304,-0.004695933
0.18312,-0.005330156
0.1832,-0.005870832
0.18328,-0.00673872
0.18336,-0.007298903
0.18344,-0.007408509
0.18352,-0.007576143
0.1836,-0.008286624
0.18368,-0.008577256
0.18376,-0.008789056
0.18384,-0.007984776
0.18392,-0.007328368
0.184,-0.006737947
0.18408,-0.00622759
0.18416,-0.006308082
0.18424,-0.006305101
0.18432,-0.006241382
0.1844,-0.006460344
0.18448,-0.006583514
0.18456,-0.006779618
0.18464,-0.00659071
0.18472,-0.00720558
0.1848,-0.007511515
0.18488,-0.00745353
0.18496,-0.007997617
0.18504,-0.00856133
0.18512,-0.009126889
0.1852,-0.009267683
0.18528,-0.008951954
0.18536,-0.009274515
0.18544,-0.00992439
0.18552,-0.01033503
0.1856,-0.01046605
0.18568,-0.009944707
0.18576,-0.009856755
0.18584,-0.009539625
0.18592,-0.009960069
0.186,-0.009934815
0.18608,-0.009921486
0.18616,-0.009914359
0.18624,-0.01012311
0.18632,-0.01045435
0.1864,-0.0108467
0.18648,-0.01132705
0.18656,-0.01182396
0.18664,-0.01220815
0.18672,-0.01248883
0.1868,-0.0120112
0.18688,-0.01198224
0.18696,-0.01184886
0.18704,-0.01189737
0.18712,-0.01229674
0.1872,-0.01182166
0.18728,-0.01085361
0.18736,-0.01016098
0.18744,-0.01015164
0.18752,-0.01063445
0.1876,-0.01099247
0.18768,-0.01100807
0.18776,-0.01099415
0.18784,-0.01105743
0.18792,-0.01110129
0.188,-0.01079823
0.18808,-0.01071223
0.18816,-0.01091906
0.18824,-0.01099013
0.18832,-0.01184185
0.1884,-0.01256304
0.18848,-0.01202728
0.18856,-0.01173189
0.18864,-0.01183381
0.18872,-0.01248322
0.1888,-0.01251608
0.18888,-0.01334079
0.18896,-0.0144499
0.18904,-0.01438666
0.18912,-0.0136785
0.1892,-0.01317361
0.18928,-0.01269429
0.18936,-0.01217813
0.18944,-0.01195701
0.18952,-0.01229106
0.1896,-0.01251633
0.18968,-0.01244997
0.18976,-0.01210855
0.18984,-0.01147634
0.18992,-0.01046609
0.19,-0.009906605
0.19008,-0.009814519
0.19016,-0.009413587
0.19024,-0.009643185
0.19032,-0.009624391
0.1904,-0.009865473
0.19048,-0.01078599
0.19056,-0.01184364
0.19064,-0.01148631
0.19072,-0.01081393
0.1908,-0.01050929
0.19088,-0.01027203
0.19096,-0.01008467
0.19104,-0.009891425
0.19112,-0.009475098
0.1912,-0.008557488
0.19128,-0.00783963
0.19136,-0.007917535
0.19144,-0.008131322
0.19152,-0.007971746
0.1916,-0.007414073
0.19168,-0.00723736
0.19176,-0.007112487
0.19184,-0.006257282
0.19192,-0.005223047
0.192,-0.004324513
0.19208,-0.0039617
0.19216,-0.003437754
0.19224,-0.002468051
0.19232,-0.001925984
0.1924,-0.001554734
0.19248,-0.0009178061
0.19256,-0.0001694079
0.19264,-2.947675e-05
0.19272,2.036831e-05
0.1928,-5.222602e-05
0.19288,0.000673336
0.19296,0.001758741
0.19304,0.002841309
0.19312,0.004015463
0.1932,0.004228716
0.19328,0.004407152
0.19336,0.004824587
0.19344,0.004913018
0.19352,0.004837207
0.1936,0.005157347
0.19368,0.005962433
0.19376,0.006375758
0.19384,0.00700744
0.19392,0.007023673
0.194,0.006806138
0.19408,0.006823983
0.19416,0.007033043
0.19424,0.007043219
0.19432,0.006999301
0.1944,0.00725963
0.19448,0.007165589
0.19456,0.007154968
0.19464,0.007254526
0.19472,0.007649148
0.1948,0.008277223
0.19488,0.008806686
0.19496,0.01019215
0.19504,0.01089581
0.19512,0.01105953
0.1952,0.01173546
0.19528,0.01213983
0.19536,0.01278003
0.19544,0.01314371
0.19552,0.01343139
0.1956,0.01380254
0.19568,0.01466441
0.19576,0.01515671
0.19584,0.01499034
0.19592,0.01472498
0.196,0.01404031
0.19608,0.01310519
0.19616,0.01223996
0.19624,0.01149554
0.19632,0.0111133
0.1964,0.01024681
0.19648,0.009926939
0.19656,0.01013081
0.19664,0.01049752
0.19672,0.01142314
0.1968,0.0119475
0.19688,0.01239746
0.19696,0.01289972
0.19704,0.0132931
0.19712,0.01327588
0.1972,0.01291525
0.19728,0.01330248
0.19736,0.01388527
0.19744,0.01461528
0.19752,0.01472987
0.1976,0.01443547
0.19768,0.01393995
0.19776,0.01351248
0.19784,0.01336773
0.19792,0.01416589
0.198,0.01459463
0.19808,0.014481
0.19816,0.01417722
0.19824,0.01363849
0.19832,0.01315131
0.1984,0.01306059
0.19848,0.01305117
0.19856,0.01275351
0.19864,0.01220011
0.19872,0.01181422
0.1988,0.01137105
0.19888,0.01115802
0.19896,0.01132892
0.19904,0.01160023
0.19912,0.01146835
0.1992,0.01227866
0.19928,0.01287759
0.19936,0.01244336
0.19944,0.01195149
0.19952,0.01133282
0.1996,0.01106538
0.19968,0.0114695
0.19976,0.01176571
0.19984,0.01149198
0.19992,0.01118735
0.2,0.01095795
0.20008,0.0105211
0.20016,0.01070267
0.20024,0.01105877
0.20032,0.01133044
0.2004,0.01071604
0.20048,0.009753569
0.20056,0.009114692
0.20064,0.008453477
0.20072,0.008310932
0.2008,0.008326158
0.20088,0.008890839
0.20096,0.009844365
0.20104,0.01003987
0.20112,0.009566861
0.2012,0.008892316
0.20128,0.008688942
0.20136,0.008331317
0.20144,0.008086378
0.20152,0.008154884
0.2016,0.007823064
0.20168,0.007474388
0.20176,0.007786764
0.20184,0.008036075
0.20192,0.008065141
0.202,0.007439582
0.20208,0.006748579
0.20216,0.00625327
0.20224,0.005273318
0.20232,0.004111247
0.2024,0.002865966
0.20248,0.002322144
0.20256,0.001958151
0.20264,0.001506562
0.20272,0.002092941
0.2028,0.002359483
0.20288,0.002707094
0.20296,0.002762174
0.20304,0.002121795
0.20312,0.001332709
0.2032,0.0006706949
0.20328,0.0002653369
0.20336,-0.0004274025
0.20344,-0.001085722
0.20352,-0.001405587
0.2036,-0.001999212
0.20368,-0.00225765
0.20376,-0.001804339
0.20384,-0.001528942
0.20392,-0.001953612
0.204,-0.002642727
0.20408,-0.003165441
0.20416,-0.003824909
0.20424,-0.004662024
0.20432,-0.004882307
0.2044,-0.004332967
0.20448,-0.004092863
0.20456,-0.003921624
0.20464,-0.003762703
0.20472,-0.004359975
0.2048,-0.00489522
0.20488,-0.004789206
0.20496,-0.005229323
0.20504,-0.005899013
0.20512,-0.00654333
0.2052,-0.007255274
0.20528,-0.008083697
0.20536,-0.008553058
0.20544,-0.008728029
0.20552,-0.009408899
0.2056,-0.01000377
0.20568,-0.01064694
0.20576,-0.01126251
0.20584,-0.01239932
0.20592,-0.01327282
0.206,-0.01375612
0.20608,-0.01416464
0.20616,-0.01413219
0.20624,-0.01418312
0.20632,-0.01416553
0.2064,-0.01432815
0.20648,-0.01482953
0.20656,-0.01474225
0.20664,-0.0144222
0.20672,-0.01402538
0.2068,-0.01383077
0.20688,-0.01367411
0.20696,-0.01387125
0.20704,-0.01388715
0.20712,-0.01399757
0.2072,-0.01446209
0.20728,-0.0144871
0.20736,-0.01451928
0.20744,-0.01455942
0.20752,-0.01447078
0.2076,-0.01495503
0.20768,-0.01568114
0.20776,-0.01633113
0.20784,-0.01604337
0.20792,-0.01590892
0.208,-0.01609967
0.20808,-0.01579312
0.20816,-0.01604071
0.20824,-0.01686492
0.20832,-0.01716889
0.2084,-0.01733179
0.20848,-0.01796288
0.20856,-0.01787901
0.20864,-0.01772415
0.20872,-0.01801395
0.2088,-0.01755219
0.20888,-0.01719348
0.20896,-0.01679101
0.20904,-0.01654972
0.20912,-0.01590333
0.2092,-0.01507669
0.20928,-0.01445887
0.20936,-0.01423759
0.20944,-0.01423328
0.20952,-0.01363046
0.2096,-0.01324753
0.20968,-0.01263329
0.20976,-0.01197675
0.20984,-0.01179205
0.20992,-0.01180486
0.21,-0.0114241
0.21008,-0.01076053
0.21016,-0.009902194
0.21024,-0.008952247
0.21032,-0.008288251
0.2104,-0.007450572
0.21048,-0.006702275
0.21056,-0.00694223
0.21064,-0.007087923
0.21072,-0.007369507
0.2108,-0.007957069
0.21088,-0.008052419
0.21096,-0.008271646
0.21104,-0.008696643
0.21112,-0.009186829
0.2112,-0.009242659
0.21128,-0.009509042
0.21136,-0.009378921
0.21144,-0.008632633
0.21152,-0.008189403
0.2116,-0.007743354
0.21168,-0.007614009
0.21176,-0.007883405
0.21184,-0.007788846
0.21192,-0.007818771
0.212,-0.007476617
0.21208,-0.007093485
0.21216,-0.006166501
0.21224,-0.005774824
0.21232,-0.005219099
0.2124,-0.004546043
0.21248,-0.004302167
0.21256,-0.004380327
0.21264,-0.004457464
0.21272,-0.00433717
0.2128,-0.004662646
0.21288,-0.004818865
0.21296,-0.004510993
0.21304,-0.003816745
0.21312,-0.00370807
0.2132,-0.004048947
0.21328,-0.004255208
0.21336,-0.003933779
0.21344,-0.004018657
0.21352,-0.004370271
0.2136,-0.00406632
0.21368,-0.003157531
0.21376,-0.002128631
0.21384,-0.0009967701
0.21392,-0.0006799426
0.214,-0.0004470545
0.21408,0.0004159281
0.21416,0.0009701919
0.21424,0.001948186
0.21432,0.003091302
0.2144,0.004311584
0.21448,0.005514187
0.21456,0.006090807
0.21464,0.006328607
0.21472,0.006911785
0.2148,0.007144674
0.21488,0.007397491
0.21496,0.007269315
0.21504,0.00770608
0.21512,0.008115519
0.2152,0.008494424
0.21528,0.009137127
0.21536,0.009891632
0.21544,0.01035714
0.21552,0.0111531
0.2156,0.01157625
0.21568,0.01293627
0.21576,0.01378755
0.21584,0.01404949
0.21592,0.01415085
0.216,0.0136023
0.21608,0.01353422
0.21616,0.01361762
0.21624,0.01413959
0.21632,0.01469514
0.2164,0.01435113
0.21648,0.01383202
0.21656,0.01344346
0.21664,0.01400123
0.21672,0.01461048
0.2168,0.01412677
0.21688,0.01427091
0.21696,0.01390846
0.21704,0.01339153
0.21712,0.01327473
0.2172,0.01339266
0.21728,0.01348417
0.21736,0.0131489
0.21744,0.01315756
0.21752,0.01309903
0.2176,0.01287164
0.21768,0.01283467
0.21776,0.01348688
0.21784,0.01472923
0.21792,0.0154
0.218,0.0163356
0.21808,0.01693229
0.21816,0.01682738
0.21824,0.01693891
0.21832,0.01677066
0.2184,0.0167776
0.21848,0.01713195
0.21856,0.01681681
0.21864,0.01618717
0.21872,0.01596996
0.2188,0.01601082
0.21888,0.01563788
0.21896,0.01539225
0.21904,0.0157866
0.21912,0.01624808
0.2192,0.01621551
0.21928,0.0157322
0.21936,0.01531998
0.21944,0.01497181
0.21952,0.01471843
0.2196,0.01496331
0.21968,0.01525349
0.21976,0.01560575
0.21984,0.01521315
0.21992,0.01536282
0.22,0.01500182
0.22008,0.01441336
0.22016,0.01379064
0.22024,0.01322051
0.22032,0.01258108
0.2204,0.01239472
0.22048,0.01220051
0.22056,0.01172255
0.22064,0.0107758
0.22072,0.009781956
0.2208,0.009558519
0.22088,0.01023748
0.22096,0.01131378
0.22104,0.01253538
0.22112,0.01283631
0.2212,0.01233386
0.22128,0.01134453
0.22136,0.01074054
0.22144,0.010918
0.22152,0.0106208
0.2216,0.00974188
0.22168,0.008435469
0.22176,0.007302701
0.22184,0.006732372
0.22192,0.006150268
0.222,0.005661224
0.22208,0.005164636
0.22216,0.004797242
0.22224,0.004406862
0.22232,0.004275774
0.2224,0.004283567
0.22248,0.004531301
0.22256,0.005418012
0.22264,0.00561315
0.22272,0.004679767
0.2228,0.003541973
0.22288,0.00339686
0.22296,0.003040742
0.22304,0.002302941
0.22312,0.001197781
0.2232,0.0003612973
0.22328,-0.0003139334
0.22336,-0.0007447673
0.22344,-0.0003003428
0.22352,-1.00955e-05
0.2236,-0.0009812054
0.22368,-0.001252012
0.22376,-0.001449665
0.22384,-0.002112648
0.22392,-0.002410661
0.224,-0.002910704
0.22408,-0.003636353
0.22416,-0.004207783
0.22424,-0.005232035
0.22432,-0.005988908
0.2244,-0.007021699
0.22448,-0.008211109
0.22456,-0.009220293
0.22464,-0.009982265
0.22472,-0.01021259
0.2248,-0.01061669
0.22488,-0.01070538
0.22496,-0.01090814
0.22504,-0.01099142
0.22512,-0.01098989
0.2252,-0.01109452
0.22528,-0.01044249
0.22536,-0.009707941
0.22544,-0.008861892
0.22552,-0.008268206
0.2256,-0.007628098
0.22568,-0.007652259
0.22576,-0.008200279
0.22584,-0.008632928
0.22592,-0.009528948
0.226,-0.01020761
0.22608,-0.009858686
0.22616,-0.009824278
0.22624,-0.01075649
0.22632,-0.01134299
0.2264,-0.01145493
0.22648,-0.01147433
0.22656,-0.01192361
0.22664,-0.01257356
0.22672,-0.01290556
0.2268,-0.01331056
0.22688,-0.01342178
0.22696,-0.0132723
0.22704,-0.01299928
0.22712,-0.01301921
0.2272,-0.01328009
0.22728,-0.01378367
0.22736,-0.01471503
0.22744,-0.01527324
0.22752,-0.01487486
0.2276,-0.01429778
0.22768,-0.01349955
0.22776,-0.012733
0.22784,-0.01279083
0.22792,-0.01348767
0.228,-0.01339183
0.22808,-0.01258298
0.22816,-0.01206136
0.22824,-0.01228354
0.22832,-0.01277294
0.2284,-0.01226931
0.22848,-0.01138735
0.22856,-0.01079514
0.22864,-0.01010588
0.22872,-0.009037735
0.2288,-0.00843046
0.22888,-0.007666125
0.22896,-0.00752911
0.22904,-0.007361764
0.22912,-0.006472024
0.2292,-0.005880581
0.22928,-0.005248531
0.22936,-0.00471275
0.22944,-0.00447722
0.22952,-0.004196777
0.2296,-0.004158936
0.22968,-0.005272076
0.22976,-0.006174195
0.22984,-0.006462448
0.22992,-0.006835428
0.23,-0.006832525
0.23008,-0.0069137
0.23016,-0.007248609
0.23024,-0.007653471
0.23032,-0.007193966
0.2304,-0.006646532
0.23048,-0.006152099
0.23056,-0.005425556
0.23064,-0.005452897
0.23072,-0.0057678
0.2308,-0.006185186
0.23088,-0.006475843
0.23096,-0.00648165
0.23104,-0.006279367
0.23112,-0.005390121
0.2312,-0.0049413
0.23128,-0.004831297
0.23136,-0.004946273
0.23144,-0.004883533
0.23152,-0.004550019
0.2316,-0.004794145
0.23168,-0.005051095
0.23176,-0.005657829
0.23184,-0.006232545
0.23192,-0.006134048
0.232,-0.006018643
0.23208,-0.006496617
0.23216,-0.006523346
0.23224,-0.006306287
0.23232,-0.005683236
0.2324,-0.004869043
0.23248,-0.004344952
0.23256,-0.004696188
0.23264,-0.004477351
0.23272,-0.00396877
0.2328,-0.003348073
0.23288,-0.00317037
0.23296,-0.003843342
0.23304,-0.004043077
0.23312,-0.003226014
0.2332,-0.002627901
0.23328,-0.001843117
0.23336,-0.001185485
0.23344,-0.0004030829
0.23352,-0.0001836968
0.2336,-0.0002988412
0.23368,-0.0007202703
0.23376,-0.0009104258
0.23384,-0.0002792618
0.23392,-8.336656e-05
0.234,-0.0001869657
0.23408,0.0007227609
0.23416,0.001632219
0.23424,0.00195573
0.23432,0.002268013
0.2344,0.002014616
0.23448,0.00331373
0.23456,0.004920261
0.23464,0.005946195
0.23472,0.006770791
0.2348,0.007364495
0.23488,0.00741758
0.23496,0.007830435
0.23504,0.008233409
0.23512,0.008762346
0.2352,0.009532261
0.23528,0.009925325
0.23536,0.009864751
0.23544,0.009404923
0.23552,0.009109387
0.2356,0.009217589
0.23568,0.009824514
0.23576,0.009791198
0.23584,0.009420187
0.23592,0.009480741
0.236,0.009618415
0.23608,0.009676459
0.23616,0.0102216
0.23624,0.01024817
0.23632,0.01057005
0.2364,0.01018543
0.23648,0.009561622
0.23656,0.009705803
0.23664,0.01009389
0.23672,0.01002784
0.2368,0.01004712
0.23688,0.00982891
0.23696,0.009163197
0.23704,0.009188578
0.23712,0.009817151
0.2372,0.01050634
0.23728,0.01084049
0.23736,0.01068069
0.23744,0.01059225
0.23752,0.01018629
0.2376,0.01011104
0.23768,0.01059813
0.23776,0.01105657
0.23784,0.01126157
0.23792,0.01142818
0.238,0.01136553
0.23808,0.01132225
0.23816,0.01153712
0.23824,0.01258544
0.23832,0.01373335
0.2384,0.01417413
0.23848,0.01452018
0.23856,0.01460255
0.23864,0.01517757
0.23872,0.01557618
0.2388,0.01553437
0.23888,0.01543034
0.23896,0.01550376
0.23904,0.01496766
0.23912,0.0148258
0.2392,0.01447935
0.23928,0.01422672
0.23936,0.01423602
0.23944,0.01456578
0.23952,0.01501471
0.2396,0.01464342
0.23968,0.01411933
0.23976,0.01330082
0.23984,0.01145279
0.23992,0.01084527
0.24,0.01048782
0.24008,0.01020994
0.24016,0.009935617
0.24024,0.009766743
0.24032,0.009531466
0.2404,0.008841089
0.24048,0.008247392
0.24056,0.007728753
0.24064,0.008209172
0.24072,0.007567905
0.2408,0.007061432
0.24088,0.006168865
0.24096,0.005034117
0.24104,0.00413229
0.24112,0.003516259
0.2412,0.003388378
0.24128,0.003622741
0.24136,0.003943856
0.24144,0.004135675
0.24152,0.004367561
0.2416,0.004693158
0.24168,0.004432748
0.24176,0.003838286
0.24184,0.003495389
0.24192,0.003148795
0.242,0.002469786
0.24208,0.002036092
0.24216,0.001847894
0.24224,0.001021652
0.24232,-0.0003483188
0.2424,-0.001556381
0.24248,-0.00221075
0.24256,-0.002665369
0.24264,-0.002983452
0.24272,-0.003732249
0.2428,-0.003729853
0.24288,-0.003058199
0.24296,-0.00277888
0.24304,-0.00328047
0.24312,-0.00410946
0.2432,-0.0042877
0.24328,-0.004266627
0.24336,-0.004652738
0.24344,-0.005785864
0.24352,-0.006464334
0.2436,-0.006620161
0.24368,-0.007216304
0.24376,-0.008394691
0.24384,-0.01014753
0.24392,-0.0110746
0.244,-0.01114893
0.24408,-0.01099954
0.24416,-0.01060411
0.24424,-0.01115538
0.24432,-0.01145352
0.2444,-0.01184384
0.24448,-0.01276577
0.24456,-0.01337095
0.24464,-0.01331763
0.24472,-0.01321148
0.2448,-0.01407425
0.24488,-0.01502749
0.24496,-0.01569584
0.24504,-0.01603669
0.24512,-0.01612614
0.2452,-0.01657551
0.24528,-0.01668377
0.24536,-0.01630503
0.24544,-0.01629399
0.24552,-0.01603432
0.2456,-0.01532786
0.24568,-0.01607174
0.24576,-0.01709097
0.24584,-0.01697119
0.24592,-0.016089
0.246,-0.01599812
0.24608,-0.0162142
0.24616,-0.01640569
0.24624,-0.01619101
0.24632,-0.01660087
0.2464,-0.01733769
0.24648,-0.01775996
0.24656,-0.01716854
0.24664,-0.0160807
0.24672,-0.01630742
0.2468,-0.01666419
0.24688,-0.01641404
0.24696,-0.01565396
0.24704,-0.01511217
0.24712,-0.01482291
0.2472,-0.01459074
0.24728,-0.01398287
0.24736,-0.01322578
0.24744,-0.01306876
0.24752,-0.0127172
0.2476,-0.0128049
0.24768,-0.01318713
0.24776,-0.01409834
0.24784,-0.01397748
0.24792,-0.01293509
0.248,-0.01273916
0.24808,-0.01200589
0.24816,-0.01098672
0.24824,-0.01015346
0.24832,-0.00863078
0.2484,-0.007806565
0.24848,-0.00741068
0.24856,-0.00738935
0.24864,-0.007928197
0.24872,-0.008083369
0.2488,-0.0083499
0.24888,-0.008973947
0.24896,-0.009886206
0.24904,-0.009580517
0.24912,-0.01023355
0.2492,-0.01099169
0.24928,-0.01110251
0.24936,-0.01125791
0.24944,-0.0118697
0.24952,-0.01206015
0.2496,-0.01158684
0.24968,-0.01053707
0.24976,-0.009456743
0.24984,-0.008473662
0.24992,-0.007753034
0.25,-0.008067589
0.25008,-0.008116163
0.25016,-0.007917248
0.25024,-0.007862448
0.25032,-0.00792841
0.2504,-0.007711352
0.25048,-0.007280162
0.25056,-0.007375768
0.25064,-0.00728688
0.25072,-0.006951638
0.2508,-0.006113608
0.25088,-0.005393581
0.25096,-0.004878827
0.25104,-0.004526702
0.25112,-0.00405525
0.2512,-0.003876149
0.25128,-0.003734966
0.25136,-0.003813509
0.25144,-0.00353613
0.25152,-0.002915407
0.2516,-0.002762708
0.25168,-0.00301697
0.25176,-0.003412088
0.25184,-0.003366788
0.25192,-0.002937925
0.252,-0.002682077
0.25208,-0.00249303
0.25216,-0.002646938
0.25224,-0.003104366
0.25232,-0.003714829
0.2524,-0.003912505
0.25248,-0.003724859
0.25256,-0.003246952
0.25264,-0.003039176
0.25272,-0.003070107
0.2528,-0.002898149
0.25288,-0.002383385
0.25296,-0.001353538
0.25304,-0.0003827504
0.25312,2.777152e-05
0.2532,0.0003948695
0.25328,0.001015737
0.25336,0.001756813
0.25344,0.001989186
0.25352,0.001337214
0.2536,0.001406259
0.25368,0.001262045
0.25376,0.001786048
0.25384,0.002520974
0.25392,0.003213797
0.254,0.004349772
0.25408,0.005585549
0.25416,0.005907877
0.25424,0.006004557
0.25432,0.006075839
0.2544,0.005905267
0.25448,0.005547858
0.25456,0.005342119
0.25464,0.005830989
0.25472,0.006352932
0.2548,0.007280793
0.25488,0.007976691
0.25496,0.008718431
0.25504,0.009835149
0.25512,0.01055388
0.2552,0.01142523
0.25528,0.01237556
0.25536,0.01267028
0.25544,0.01234077
0.25552,0.01228098
0.2556,0.01213749
0.25568,0.01151775
0.25576,0.01157746
0.25584,0.01179281
0.25592,0.01258969
0.256,0.01324452
0.25608,0.01347896
0.25616,0.01349083
0.25624,0.01310239
0.25632,0.01282157
0.2564,0.01246085
0.25648,0.01268553
0.25656,0.01300696
0.25664,0.01290149
0.25672,0.01289822
0.2568,0.01299048
0.25688,0.01247712
0.25696,0.0127955
0.25704,0.0132625
0.25712,0.01375611
0.2572,0.01425757
0.25728,0.01422828
0.25736,0.01404405
0.25744,0.01404452
0.25752,0.01443745
0.2576,0.01418259
0.25768,0.01356892
0.25776,0.01357165
0.25784,0.01339417
0.25792,0.01328359
0.258,0.01327758
0.25808,0.01356001
0.25816,0.01435456
0.25824,0.0149778
0.25832,0.01520375
0.2584,0.01562268
0.25848,0.01505187
0.25856,0.01419874
0.25864,0.0135688
0.25872,0.01320936
0.2588,0.01308655
0.25888,0.01298797
0.25896,0.01323841
0.25904,0.0133853
0.25912,0.01356165
0.2592,0.01433899
0.25928,0.01449844
0.25936,0.013924
0.25944,0.01449718
0.25952,0.01508541
0.2596,0.01512557
0.25968,0.01517694
0.25976,0.01548081
0.25984,0.01569012
0.25992,0.01537046
0.26,0.0152341
0.26008,0.01495101
0.26016,0.01511489
0.26024,0.01467189
0.26032,0.01384793
0.2604,0.01320391
0.26048,0.01273799
0.26056,0.01241012
0.26064,0.01170606
0.26072,0.01046015
0.2608,0.009334156
0.26088,0.008560939
0.26096,0.008239315
0.26104,0.007454035
0.26112,0.006877326
0.2612,0.006813621
0.26128,0.006266178
0.26136,0.005979882
0.26144,0.005890916
0.26152,0.005668592
0.2616,0.005392405
0.26168,0.005034929
0.26176,0.004784339
0.26184,0.0041248
0.26192,0.003652577
0.262,0.003382135
0.26208,0.002594022
0.26216,0.002450476
0.26224,0.002413967
0.26232,0.001750892
0.2624,0.00104252
0.26248,0.0005679571
0.26256,-5.599632e-05
0.26264,-0.0004748848
0.26272,-0.001051839
0.2628,-0.001544399
0.26288,-0.001607542
0.26296,-0.002017443
0.26304,-0.00268945
0.26312,-0.003329006
0.2632,-0.003720914
0.26328,-0.004118003
0.26336,-0.004238063
0.26344,-0.004567343
0.26352,-0.00526795
0.2636,-0.006166792
0.26368,-0.005935939
0.26376,-0.005309112
0.26384,-0.004314293
0.26392,-0.003718619
0.264,-0.004928947
0.26408,-0.005827108
0.26416,-0.006170038
0.26424,-0.006895347
0.26432,-0.007557427
0.2644,-0.00791227
0.26448,-0.008469265
0.26456,-0.009229226
0.26464,-0.009461113
0.26472,-0.009274801
0.2648,-0.008791732
0.26488,-0.008298994
0.26496,-0.008584363
0.26504,-0.00917342
0.26512,-0.009382415
0.2652,-0.009987014
0.26528,-0.01083848
0.26536,-0.01166464
0.26544,-0.01200719
0.26552,-0.01236194
0.2656,-0.01260986
0.26568,-0.01282683
0.26576,-0.01396032
0.26584,-0.01490274
0.26592,-0.01530456
0.266,-0.01592026
0.26608,-0.01580799
0.26616,-0.01461388
0.26624,-0.01287211
0.26632,-0.01148291
0.2664,-0.01049126
0.26648,-0.01017222
0.26656,-0.01034833
0.26664,-0.01021454
0.26672,-0.01067821
0.2668,-0.01062715
0.26688,-0.01127494
0.26696,-0.01180602
0.26704,-0.01223681
0.26712,-0.01344338
0.2672,-0.01401804
0.26728,-0.01399473
0.26736,-0.01454736
0.26744,-0.01499376
0.26752,-0.01439793
0.2676,-0.0139773
0.26768,-0.01393658
0.26776,-0.01371106
0.26784,-0.01381774
0.26792,-0.01392583
0.268,-0.0142457
0.26808,-0.0146621
0.26816,-0.01465757
0.26824,-0.01476062
0.26832,-0.01460356
0.2684,-0.01468518
0.26848,-0.01398433
0.26856,-0.01358776
0.26864,-0.0137996
0.26872,-0.01352106
0.2688,-0.01313099
0.26888,-0.01300496
0.26896,-0.01249838
0.26904,-0.01139967
0.26912,-0.01101441
0.2692,-0.01143703
0.26928,-0.01164311
0.26936,-0.01156885
0.26944,-0.01163483
0.26952,-0.01223245
0.2696,-0.01217357
0.26968,-0.01140455
0.26976,-0.01078261
0.26984,-0.01122896
0.26992,-0.01173281
0.27,-0.0110702
0.27008,-0.01038631
0.27016,-0.01022625
0.27024,-0.0095558
0.27032,-0.008467697
0.2704,-0.008361507
0.27048,-0.008003938
0.27056,-0.007398794
0.27064,-0.007080964
0.27072,-0.007038063
0.2708,-0.006559914
0.27088,-0.006342507
0.27096,-0.006139019
0.27104,-0.006338403
0.27112,-0.006246617
0.2712,-0.005146938
0.27128,-0.004371123
0.27136,-0.003567223
0.27144,-0.002964922
0.27152,-0.002356096
0.2716,-0.00224326
0.27168,-0.001841474
0.27176,-0.002198613
0.27184,-0.002095143
0.27192,-0.002019724
0.272,-0.002553486
0.27208,-0.00313679
0.27216,-0.002844052
0.27224,-0.002191862
0.27232,-0.001807641
0.2724,-0.001592473
0.27248,-0.001786334
0.27256,-0.001534042
0.27264,-0.0008196202
0.27272,8.543692e-07
0.2728,0.0006735713
0.27288,0.0004440601
0.27296,0.0002168239
0.27304,0.0007592131
0.27312,0.00151823
0.2732,0.002405714
0.27328,0.003160804
0.27336,0.003491608
0.27344,0.00424255
0.27352,0.005168801
0.2736,0.006065262
0.27368,0.006832155
0.27376,0.007456817
0.27384,0.007867628
0.27392,0.007962069
0.274,0.008096375
0.27408,0.008125274
0.27416,0.008717651
0.27424,0.00889021
0.27432,0.008148279
0.2744,0.007320596
0.27448,0.007442057
0.27456,0.008353467
0.27464,0.008808427
0.27472,0.008670803
0.2748,0.007923481
0.27488,0.007588868
0.27496,0.007597876
0.27504,0.008343969
0.27512,0.00888397
0.2752,0.008845949
0.27528,0.008870657
0.27536,0.008787544
0.27544,0.008829225
0.27552,0.008861776
0.2756,0.009502943
0.27568,0.009630231
0.27576,0.009404099
0.27584,0.01009882
0.27592,0.01103092
0.276,0.01237803
0.27608,0.01369419
0.27616,0.01395212
0.27624,0.01422748
0.27632,0.014098
0.2764,0.0135132
0.27648,0.01277575
0.27656,0.01236205
0.27664,0.01236909
0.27672,0.0118669
0.2768,0.01104146
0.27688,0.01080698
0.27696,0.01142658
0.27704,0.01242799
0.27712,0.0136468
0.2772,0.01413226
0.27728,0.01424878
0.27736,0.01389732
0.27744,0.01343283
0.27752,0.01318161
0.2776,0.01306789
0.27768,0.01341223
0.27776,0.01343515
0.27784,0.0135754
0.27792,0.01403899
0.278,0.01451624
0.27808,0.01401427
0.27816,0.01396925
0.27824,0.01360281
0.27832,0.01355388
0.2784,0.01315925
0.27848,0.0127394
0.27856,0.01320787
0.27864,0.01299737
0.27872,0.01238074
0.2788,0.01200365
0.27888,0.01200357
0.27896,0.01245987
0.27904,0.01292689
0.27912,0.01236412
0.2792,0.01186277
0.27928,0.01164156
0.27936,0.01163816
0.27944,0.01148013
0.27952,0.01163129
0.2796,0.01194708
0.27968,0.01125525
0.27976,0.0113814
0.27984,0.01143145
0.27992,0.01136402
0.28,0.01085054
0.28008,0.01053786
0.28016,0.01059027
0.28024,0.01104888
0.28032,0.01152294
0.2804,0.01126806
0.28048,0.01132192
0.28056,0.01099852
0.28064,0.01027078
0.28072,0.009900231
0.2808,0.01050267
0.28088,0.01072058
0.28096,0.01068605
0.28104,0.01019681
0.28112,0.009706535
0.2812,0.008932475
0.28128,0.007994969
0.28136,0.008184386
0.28144,0.008349458
0.28152,0.007803808
0.2816,0.0074181
0.28168,0.007174545
0.28176,0.006938469
0.28184,0.006985174
0.28192,0.006829711
0.282,0.006570274
0.28208,0.005837781
0.28216,0.005288449
0.28224,0.004496303
0.28232,0.003264013
0.2824,0.002122254
0.28248,0.001553097
0.28256,0.001211038
0.28264,0.001189764
0.28272,0.0007961279
0.2828,0.0006202406
0.28288,0.0006928199
0.28296,0.0002362133
0.28304,-0.0002437034
0.28312,-0.0011589
0.2832,-0.001632755
0.28328,-0.002042319
0.28336,-0.003118986
0.28344,-0.004503964
0.28352,-0.005898881
0.2836,-0.006992998
0.28368,-0.007767789
0.28376,-0.008689294
0.28384,-0.009949229
0.28392,-0.01090242
0.284,-0.01142844
0.28408,-0.01142514
0.28416,-0.01123639
0.28424,-0.01037506
0.28432,-0.009701109
0.2844,-0.009632673
0.28448,-0.0102733
0.28456,-0.01108961
0.28464,-0.01140827
0.28472,-0.01116105
0.2848,-0.01090987
0.28488,-0.01111561
0.28496,-0.01097951
0.28504,-0.01069084
0.28512,-0.01031089
0.2852,-0.01003874
0.28528,-0.01055191
0.28536,-0.01161274
0.28544,-0.0126935
0.28552,-0.01339154
0.2856,-0.01416167
0.28568,-0.01491067
0.28576,-0.01490147
0.28584,-0.01495882
0.28592,-0.01488514
0.286,-0.01509927
0.28608,-0.01517507
0.28616,-0.01457808
0.28624,-0.01436514
0.28632,-0.01445372
0.2864,-0.01486357
0.28648,-0.0152281
0.28656,-0.01581167
0.28664,-0.01608255
0.28672,-0.01637616
0.2868,-0.01575538
0.28688,-0.01526945
0.28696,-0.01456015
0.28704,-0.01441631
0.28712,-0.01468603
0.2872,-0.0147746
0.28728,-0.01496161
0.28736,-0.01560681
0.28744,-0.01622344
0.28752,-0.01650337
0.2876,-0.01636891
0.28768,-0.01670127
0.28776,-0.0170733
0.28784,-0.01741743
0.28792,-0.01807388
0.288,-0.018013
0.28808,-0.01749872
0.28816,-0.01724483
0.28824,-0.01717336
0.28832,-0.01715653
0.2884,-0.01688698
0.28848,-0.01739162
0.28856,-0.0175165
0.28864,-0.0169981
0.28872,-0.01618586
0.2888,-0.01570911
0.28888,-0.01537532
0.28896,-0.01489161
0.28904,-0.01413863
0.28912,-0.01305323
0.2892,-0.01157453
0.28928,-0.009964215
0.28936,-0.009473398
0.28944,-0.008742685
0.28952,-0.008135749
0.2896,-0.00787439
0.28968,-0.007829813
0.28976,-0.007751551
0.28984,-0.007515081
0.28992,-0.00664472
0.29,-0.005168599
0.29008,-0.004274976
0.29016,-0.003183068
0.29024,-0.002608515
0.29032,-0.00221291
0.2904,-0.001878922
0.29048,-0.001858075
0.29056,-0.001970683
0.29064,-0.002165107
0.29072,-0.002535922
0.2908,-0.002069965
0.29088,-0.0008706643
0.29096,3.708991e-05
0.29104,0.0004120817
0.29112,0.0006960221
0.2912,0.001613834
0.29128,0.002551345
0.29136,0.003486585
0.29144,0.003774669
0.29152,0.003536816
0.2916,0.003856376
0.29168,0.003589029
0.29176,0.002969329
0.29184,0.002451364
0.29192,0.001711271
0.292,0.0006347297
0.29208,0.0003580915
0.29216,0.001103296
0.29224,0.001729402
0.29232,0.001456933
0.2924,0.001014629
0.29248,0.0005050469
0.29256,1.822614e-05
0.29264,0.0002705667
0.29272,0.0005911921
0.2928,0.0009516934
0.29288,0.001801711
0.29296,0.002323056
0.29304,0.002658938
0.29312,0.003162951
0.2932,0.003416094
0.29328,0.003624835
0.29336,0.004061893
0.29344,0.004424224
0.29352,0.005221735
0.2936,0.005066752
0.29368,0.004895992
0.29376,0.00555289
0.29384,0.00649648
0.29392,0.007093925
0.294,0.007389005
0.29408,0.008549161
0.29416,0.009652713
0.29424,0.00986997
0.29432,0.01047972
0.2944,0.01093301
0.29448,0.01085143
0.29456,0.01099978
0.29464,0.01177742
0.29472,0.01154284
0.2948,0.01134234
0.29488,0.01144916
0.29496,0.01163844
0.29504,0.0121297
0.29512,0.01236767
0.2952,0.01253732
0.29528,0.01269378
0.29536,0.01281364
0.29544,0.01331416
0.29552,0.01379881
0.2956,0.01394485
0.29568,0.0138983
0.29576,0.01442845
0.29584,0.01475829
0.29592,0.01483762
0.296,0.01412329
0.29608,0.01276153
0.29616,0.01204316
0.29624,0.01179524
0.29632,0.01160565
0.2964,0.01103084
0.29648,0.01083478
0.29656,0.01125463
0.29664,0.01143313
0.29672,0.01118643
0.2968,0.01122562
0.29688,0.01111934
0.29696,0.01109511
0.29704,0.01084213
0.29712,0.0110034
0.2972,0.01132058
0.29728,0.0111857
0.29736,0.01118705
0.29744,0.01155818
0.29752,0.01208157
0.2976,0.01304482
0.29768,0.01312312
0.29776,0.0124285
0.29784,0.01268006
0.29792,0.01327656
0.298,0.01376755
0.29808,0.01378775
0.29816,0.01368324
0.29824,0.01360463
0.29832,0.01353147
0.2984,0.01315114
0.29848,0.01342034
0.29856,0.01372479
0.29864,0.01342826
0.29872,0.0132865
0.2988,0.0131663
0.29888,0.01297553
0.29896,0.01281127
0.29904,0.01303396
0.29912,0.0135525
0.2992,0.01339015
0.29928,0.01261339
0.29936,0.01261481
0.29944,0.01287445
0.29952,0.01232459
0.2996,0.01132334
0.29968,0.01021874
0.29976,0.00998251
0.29984,0.01079205
0.29992,0.01068497
0.3,0.01022973
0.30008,0.009738375
0.30016,0.009918454
0.30024,0.009976274
0.30032,0.009585817
0.3004,0.009644868
0.30048,0.00937262
0.30056,0.008573312
0.30064,0.007955234
0.30072,0.007442167
0.3008,0.006930663
0.30088,0.00633058
0.30096,0.005594905
0.30104,0.00532015
0.30112,0.004750049
0.3012,0.004390677
0.30128,0.003902184
0.30136,0.003080321
0.30144,0.002014684
0.30152,0.001098788
0.3016,0.0008419923
0.30168,0.0004741572
0.30176,-0.0001980349
0.30184,9.087787e-06
0.30192,0.0004003362
0.302,0.0008038376
0.30208,0.000168675
0.30216,-0.0002257206
0.30224,-0.0004722724
0.30232,-0.001161591
0.3024,-0.002585373
0.30248,-0.00345832
0.30256,-0.003183509
0.30264,-0.002742406
0.30272,-0.00206734
0.3028,-0.001331646
0.30288,-0.0008356741
0.30296,-0.001798682
0.30304,-0.002512949
0.30312,-0.003571085
0.3032,-0.004652426
0.30328,-0.005800633
0.30336,-0.007287839
0.30344,-0.007402442
0.30352,-0.006625224
0.3036,-0.006013057
0.30368,-0.006028149
0.30376,-0.006467951
0.30384,-0.006655186
0.30392,-0.006888167
0.304,-0.006460453
0.30408,-0.005629996
0.30416,-0.005823496
0.30424,-0.006275137
0.30432,-0.007197855
0.3044,-0.007189482
0.30448,-0.006973471
0.30456,-0.00651666
0.30464,-0.006384072
0.30472,-0.006615529
0.3048,-0.006531298
0.30488,-0.006640522
0.30496,-0.006680265
0.30504,-0.006951195
0.30512,-0.006772646
0.3052,-0.006782224
0.30528,-0.007478269
0.30536,-0.008448102
0.30544,-0.009503186
0.30552,-0.009470115
0.3056,-0.009179444
0.30568,-0.008755026
0.30576,-0.008541343
0.30584,-0.008515134
0.30592,-0.008670582
0.306,-0.008512955
0.30608,-0.008157477
0.30616,-0.007895728
0.30624,-0.007187247
0.30632,-0.007087034
0.3064,-0.008061489
0.30648,-0.009242957
0.30656,-0.00972534
0.30664,-0.01050936
0.30672,-0.01080718
0.3068,-0.01112444
0.30688,-0.01145184
0.30696,-0.01210991
0.30704,-0.01266725
0.30712,-0.0131327
0.3072,-0.01333936
0.30728,-0.01269162
0.30736,-0.01300625
0.30744,-0.01354456
0.30752,-0.01405822
0.3076,-0.01466613
0.30768,-0.01476279
0.30776,-0.01483372
0.30784,-0.01512713
0.30792,-0.01538319
0.308,-0.01564334
0.30808,-0.01548557
0.30816,-0.01520316
0.30824,-0.01540552
0.30832,-0.01589292
0.3084,-0.01565094
0.30848,-0.0161562
0.30856,-0.01709203
0.30864,-0.01763752
0.30872,-0.01801809
0.3088,-0.01771278
0.30888,-0.01733302
0.30896,-0.01734838
0.30904,-0.01774229
0.30912,-0.01783009
0.3092,-0.01768286
0.30928,-0.01772899
0.30936,-0.01705373
0.30944,-0.0166649
0.30952,-0.01662256
0.3096,-0.01603495
0.30968,-0.01539425
0.30976,-0.0145385
0.30984,-0.01351259
0.30992,-0.01289699
0.31,-0.01250331
0.31008,-0.01221243
0.31016,-0.01197471
0.31024,-0.01220875
0.31032,-0.01140868
0.3104,-0.01023501
0.31048,-0.009773643
0.31056,-0.009188998
0.31064,-0.009248976
0.31072,-0.009331425
0.3108,-0.008697618
0.31088,-0.007436786
0.31096,-0.006781285
0.31104,-0.006290314
0.31112,-0.005810461
0.3112,-0.005680143
0.31128,-0.005746985
0.31136,-0.006301237
0.31144,-0.006623644
0.31152,-0.006848859
0.3116,-0.006764865
0.31168,-0.006252278
0.31176,-0.005854096
0.31184,-0.005048156
0.31192,-0.004071568
0.312,-0.004094206
0.31208,-0.004041603
0.31216,-0.003878094
0.31224,-0.003613855
0.31232,-0.003754781
0.3124,-0.003724929
0.31248,-0.003333489
0.31256,-0.003337441
0.31264,-0.003272511
0.31272,-0.003488548
0.3128,-0.003120769
0.31288,-0.002399151
0.31296,-0.001766409
0.31304,-0.001391326
0.31312,-0.001364612
0.3132,-0.001157001
0.31328,-0.0009382365
0.31336,-0.0003949898
0.31344,9.987157e-05
0.31352,0.0003985642
0.3136,0.0004897345
0.31368,0.001190332
0.31376,0.001720383
0.31384,0.001726076
0.31392,0.001836456
0.314,0.001922715
0.31408,0.001824122
0.31416,0.001795355
0.31424,0.002073304
0.31432,0.002874352
0.3144,0.003800084
0.31448,0.004346645
0.31456,0.004494986
0.31464,0.004875881
0.31472,0.005550933
0.3148,0.005848518
0.31488,0.006363705
0.31496,0.00651037
0.31504,0.006332261
0.31512,0.006582114
0.3152,0.007328466
0.31528,0.008141788
0.31536,0.008940898
0.31544,0.009541515
0.31552,0.01068528
0.3156,0.01153406
0.31568,0.0113975
0.31576,0.01130986
0.31584,0.01112098
0.31592,0.01112017
0.316,0.0116017
0.31608,0.01216484
0.31616,0.01208965
0.31624,0.01194003
0.31632,0.01218663
0.3164,0.01217291
0.31648,0.01288964
0.31656,0.01353116
0.31664,0.01384678
0.31672,0.01390629
0.3168,0.01371943
0.31688,0.01419056
0.31696,0.01426709
0.31704,0.01436321
0.31712,0.01439566
0.3172,0.01506842
0.31728,0.01542601
0.31736,0.01546235
0.31744,0.01547224
0.31752,0.01578123
0.3176,0.01632405
0.31768,0.01618774
0.31776,0.01590066
0.31784,0.01622069
0.31792,0.01687796
0.318,0.01659597
0.31808,0.01567166
0.31816,0.01510479
0.31824,0.0141176
0.31832,0.01405969
0.3184,0.0146709
0.31848,0.01516105
0.31856,0.01467854
0.31864,0.01416659
0.31872,0.01385531
0.3188,0.01418218
0.31888,0.0139004
0.31896,0.01385136
0.31904,0.01381652
0.31912,0.01325556
0.3192,0.01283188
0.31928,0.01246885
0.31936,0.01201764
0.31944,0.01177475
0.31952,0.01172338
0.3196,0.01152646
0.31968,0.01138109
0.31976,0.01131102
0.31984,0.01070583
0.31992,0.01021467
0.32,0.009529173
0.32008,0.009140287
0.32016,0.009235518
0.32024,0.009178543
0.32032,0.008780423
0.3204,0.008007293
0.32048,0.00662668
0.32056,0.00568331
0.32064,0.004909471
0.32072,0.004763009
0.3208,0.004937886
0.32088,0.005661062
0.32096,0.006147413
0.32104,0.006052692
0.32112,0.006622807
0.3212,0.006784427
0.32128,0.00593522
0.32136,0.005175358
0.32144,0.004499484
0.32152,0.004467354
0.3216,0.004564642
0.32168,0.004374172
0.32176,0.003964011
0.32184,0.003025019
0.32192,0.001987573
0.322,0.0009147469
0.32208,0.000574299
0.32216,0.001148869
0.32224,0.001863039
0.32232,0.001901918
0.3224,0.001216894
0.32248,0.0006912942
0.32256,0.0007627889
0.32264,0.0009586203
0.32272,0.001216079
0.3228,0.0005172092
0.32288,-0.0001942324
0.32296,-0.0002888011
0.32304,-0.0008891511
0.32312,-0.001123745
0.3232,-0.0005382761
0.32328,-0.00024137
0.32336,-0.0001905179
0.32344,-0.0005569693
0.32352,-0.0008504998
0.3236,-0.0003336016
0.32368,-0.0003500554
0.32376,-0.0005154178
0.32384,-0.0003463893
0.32392,-0.0005121757
0.324,-0.0006092439
0.32408,-0.0008638439
0.32416,-0.001134152
0.32424,-0.0007789099
0.32432,-0.0007537116
0.3244,-0.001133999
0.32448,-0.001697549
0.32456,-0.002284036
0.32464,-0.002646456
0.32472,-0.002818807
0.3248,-0.002688277
0.32488,-0.004035435
0.32496,-0.005310513
0.32504,-0.005894343
0.32512,-0.006008205
0.3252,-0.006164943
0.32528,-0.00633311
0.32536,-0.006553203
0.32544,-0.006930689
0.32552,-0.007133389
0.3256,-0.007434119
0.32568,-0.008070709
0.32576,-0.008438333
0.32584,-0.008596542
0.32592,-0.008636929
0.326,-0.009356055
0.32608,-0.01004586
0.32616,-0.0101049
0.32624,-0.01026006
0.32632,-0.01088167
0.3264,-0.0113536
0.32648,-0.01137562
0.32656,-0.01199553
0.32664,-0.01221753
0.32672,-0.01228648
0.3268,-0.0121967
0.32688,-0.01230027
0.32696,-0.01303219
0.32704,-0.01343494
0.32712,-0.01354931
0.3272,-0.01363279
0.32728,-0.01350146
0.32736,-0.01382045
0.32744,-0.01419219
0.32752,-0.01479749
0.3276,-0.0155807
0.32768,-0.01540217
0.32776,-0.01452134
0.32784,-0.01435922
0.32792,-0.0150107
0.328,-0.01578134
0.32808,-0.01653712
0.32816,-0.01680517
0.32824,-0.01684467
0.32832,-0.01661575
0.3284,-0.01599513
0.32848,-0.01540884
0.32856,-0.01393917
0.32864,-0.01235907
0.32872,-0.01160101
0.3288,-0.01157167
0.32888,-0.01182486
0.32896,-0.01213412
0.32904,-0.01244317
0.32912,-0.01278976
0.3292,-0.01278088
0.32928,-0.01251347
0.32936,-0.01183872
0.32944,-0.01101245
0.32952,-0.01053089
0.3296,-0.01044418
0.32968,-0.01033159
0.32976,-0.01024301
0.32984,-0.01015794
0.32992,-0.009801667
0.33,-0.009293076
0.33008,-0.008806717
0.33016,-0.008353765
0.33024,-0.008266968
0.33032,-0.008251863
0.3304,-0.008316834
0.33048,-0.008722635
0.33056,-0.008648056
0.33064,-0.007853704
0.33072,-0.006962761
0.3308,-0.00621414
0.33088,-0.005390402
0.33096,-0.00619441
0.33104,-0.006852529
0.33112,-0.006992165
0.3312,-0.006741619
0.33128,-0.006301125
0.33136,-0.005491946
0.33144,-0.00491381
0.33152,-0.004476208
0.3316,-0.00366911
0.33168,-0.003309487
0.33176,-0.003090002
0.33184,-0.002944335
0.33192,-0.002987324
0.332,-0.002999402
0.33208,-0.002394123
0.33216,-0.001740765
0.33224,-0.0009949706
0.33232,-0.0003663781
0.3324,-2.400055e-05
0.33248,0.0002081892
0.33256,0.001592636
0.33264,0.002974078
0.33272,0.00407871
0.3328,0.00490835
0.33288,0.005429367
0.33296,0.005819029
0.33304,0.005605212
0.33312,0.00582383
0.3332,0.005716707
0.33328,0.005008185
0.33336,0.004463544
0.33344,0.004598544
0.33352,0.004149275
0.3336,0.004106049
0.33368,0.004032975
0.33376,0.003905465
0.33384,0.003898514
0.33392,0.003290296
0.334,0.002475422
0.33408,0.002266772
0.33416,0.00237667
0.33424,0.002599209
0.33432,0.003271457
0.3344,0.003751761
0.33448,0.003701481
0.33456,0.004186606
0.33464,0.004456261
0.33472,0.005097695
0.3348,0.006954357
0.33488,0.008647529
0.33496,0.009808598
0.33504,0.01066644
0.33512,0.01136441
0.3352,0.01207614
0.33528,0.01232242
0.33536,0.01226807
0.33544,0.01154231
0.33552,0.01107222
0.3356,0.01048357
0.33568,0.01051909
0.33576,0.01121368
0.33584,0.01096385
0.33592,0.01036659
0.336,0.009881856
0.33608,0.009459143
0.33616,0.008909258
0.33624,0.008800553
0.33632,0.008109222
0.3364,0.007287928
0.33648,0.006937925
0.33656,0.00734095
0.33664,0.008274343
0.33672,0.009147597
0.3368,0.009288025
0.33688,0.009576493
0.33696,0.01018843
0.33704,0.0109176
0.33712,0.0113645
0.3372,0.01132619
0.33728,0.01115961
0.33736,0.01090983
0.33744,0.01028297
0.33752,0.009644669
0.3376,0.008725671
0.33768,0.008337036
0.33776,0.008755799
0.33784,0.008939731
0.33792,0.00914048
0.338,0.009813827
0.33808,0.01014033
0.33816,0.01030019
0.33824,0.0102851
0.33832,0.01037392
0.3384,0.01001589
0.33848,0.009728103
0.33856,0.009656103
0.33864,0.009753685
0.33872,0.009669811
0.3388,0.009343845
0.33888,0.009610624
0.33896,0.01016079
0.33904,0.01077615
0.33912,0.01061932
0.3392,0.01070238
0.33928,0.01086815
0.33936,0.01057012
0.33944,0.01008605
0.33952,0.009686772
0.3396,0.01003931
0.33968,0.01029093
0.33976,0.0103024
0.33984,0.01098917
0.33992,0.01153171
0.34,0.01132274
0.34008,0.01056879
0.34016,0.01037484
0.34024,0.009959107
0.34032,0.009702774
0.3404,0.009598732
0.34048,0.008951246
0.34056,0.008458973
0.34064,0.008158421
0.34072,0.007701064
0.3408,0.007238382
0.34088,0.006871713
0.34096,0.006681378
0.34104,0.006226402
0.34112,0.005445812
0.3412,0.005149362
0.34128,0.005333652
0.34136,0.005367874
0.34144,0.005151907
0.34152,0.004331116
0.3416,0.00337043
0.34168,0.002604956
0.34176,0.001467204
0.34184,0.0005107015
0.34192,0.0001251388
0.342,9.872369e-05
0.34208,0.0005223693
0.34216,0.00114908
0.34224,0.001810689
0.34232,0.002025594
0.3424,0.001463826
0.34248,0.0009658234
0.34256,0.0005368821
0.34264,0.0006924252
0.34272,0.0004865287
0.3428,0.0001120293
0.34288,-0.0002881912
0.34296,-0.0002925832
0.34304,-0.0007296753
0.34312,-0.0009774292
0.3432,-0.0009925184
0.34328,-0.001284806
0.34336,-0.002082552
0.34344,-0.002577321
0.34352,-0.002876041
0.3436,-0.002855907
0.34368,-0.002449073
0.34376,-0.002646732
0.34384,-0.002553022
0.34392,-0.002645882
0.344,-0.002758292
0.34408,-0.002830716
0.34416,-0.004009078
0.34424,-0.005550066
0.34432,-0.006255088
0.3444,-0.006729623
0.34448,-0.006947842
0.34456,-0.006928233
0.34464,-0.006790355
0.34472,-0.006817211
0.3448,-0.007153219
0.34488,-0.007564999
0.34496,-0.00717301
0.34504,-0.006865107
0.34512,-0.006874769
0.3452,-0.00692552
0.34528,-0.007074002
0.34536,-0.006826186
0.34544,-0.006884993
0.34552,-0.007176515
0.3456,-0.007956241
0.34568,-0.008769046
0.34576,-0.00908708
0.34584,-0.00930395
0.34592,-0.008941426
0.346,-0.008308358
0.34608,-0.008626061
0.34616,-0.009170935
0.34624,-0.009219962
0.34632,-0.00928102
0.3464,-0.008987854
0.34648,-0.009199494
0.34656,-0.009865891
0.34664,-0.01019142
0.34672,-0.01047585
0.3468,-0.01056788
0.34688,-0.01056337
0.34696,-0.01051137
0.34704,-0.01004828
0.34712,-0.009756221
0.3472,-0.009627755
0.34728,-0.009341585
0.34736,-0.009378519
0.34744,-0.008889616
0.34752,-0.008602785
0.3476,-0.008279657
0.34768,-0.007829257
0.34776,-0.007352759
0.34784,-0.007680796
0.34792,-0.007805231
0.348,-0.007734188
0.34808,-0.007843242
0.34816,-0.007287541
0.34824,-0.007081285
0.34832,-0.007935286
0.3484,-0.009046002
0.34848,-0.009580569
0.34856,-0.009815007
0.34864,-0.01004038
0.34872,-0.01029608
0.3488,-0.01012489
0.34888,-0.009679562
0.34896,-0.008678674
0.34904,-0.008230288
0.34912,-0.008292668
0.3492,-0.008237631
0.34928,-0.008046722
0.34936,-0.008194936
0.34944,-0.008083584
0.34952,-0.008298096
0.3496,-0.008611046
0.34968,-0.009151462
0.34976,-0.009448139
0.34984,-0.009897072
0.34992,-0.01013131
0.35,-0.01028492
0.35008,-0.01089425
0.35016,-0.01114631
0.35024,-0.01117364
0.35032,-0.01067032
0.3504,-0.01016247
0.35048,-0.009793674
0.35056,-0.009730534
0.35064,-0.01005224
0.35072,-0.009920411
0.3508,-0.009750103
0.35088,-0.009623238
0.35096,-0.00911736
0.35104,-0.00887588
0.35112,-0.008458006
0.3512,-0.007893836
0.35128,-0.007744467
0.35136,-0.007583284
0.35144,-0.007579253
0.35152,-0.00718484
0.3516,-0.006513657
0.35168,-0.006097103
0.35176,-0.005163646
0.35184,-0.003611678
0.35192,-0.002101438
0.352,-0.001998295
0.35208,-0.002604838
0.35216,-0.002523902
0.35224,-0.001974406
0.35232,-0.001843056
0.3524,-0.001035622
0.35248,-0.0004688257
0.35256,-6.472112e-05
0.35264,0.0006987717
0.35272,0.0006851331
0.3528,0.0004832064
0.35288,0.0005267568
0.35296,0.001242105
0.35304,0.001827901
0.35312,0.002180489
0.3532,0.001979615
0.35328,0.001910468
0.35336,0.002105801
0.35344,0.002015182
0.35352,0.001887692
0.3536,0.001802878
0.35368,0.001642663
0.35376,0.001718265
0.35384,0.002191355
0.35392,0.001849802
0.354,0.0008450673
0.35408,-0.0001721781
0.35416,-0.000339497
0.35424,-0.0001351564
0.35432,5.298066e-05
0.3544,0.00049206
0.35448,0.001205521
0.35456,0.001976002
0.35464,0.001844278
0.35472,0.002092552
0.3548,0.002438115
0.35488,0.002974272
0.35496,0.00346744
0.35504,0.003399927
0.35512,0.003733973
0.3552,0.003803327
0.35528,0.003629952
0.35536,0.003963646
0.35544,0.004680397
0.35552,0.004769969
0.3556,0.004558528
0.35568,0.005061599
0.35576,0.005836994
0.35584,0.006364747
0.35592,0.006463939
0.356,0.006618737
0.35608,0.006792184
0.35616,0.006974648
0.35624,0.007504071
0.35632,0.008249921
0.3564,0.009221879
0.35648,0.009872153
0.35656,0.01046682
0.35664,0.01122524
0.35672,0.01168355
0.3568,0.01187467
0.35688,0.01220392
0.35696,0.01226488
0.35704,0.01259212
0.35712,0.01250258
0.3572,0.01252302
0.35728,0.01322813
0.35736,0.01414901
0.35744,0.01428119
0.35752,0.01358785
0.3576,0.01294874
0.35768,0.01237685
0.35776,0.01226373
0.35784,0.0122201
0.35792,0.01217662
0.358,0.01300662
0.35808,0.01315824
0.35816,0.0129031
0.35824,0.01281275
0.35832,0.01333962
0.3584,0.013985
0.35848,0.01455172
0.35856,0.01529319
0.35864,0.01530063
0.35872,0.01494341
0.3588,0.01506486
0.35888,0.01542269
0.35896,0.01563886
0.35904,0.01493668
0.35912,0.01475146
0.3592,0.01579421
0.35928,0.01603268
0.35936,0.01574763
0.35944,0.01640736
0.35952,0.01657834
0.3596,0.01580494
0.35968,0.01481436
0.35976,0.01463936
0.35984,0.01469114
0.35992,0.01421934
0.36,0.0136857
0.36008,0.01348845
0.36016,0.01358555
0.36024,0.01337539
0.36032,0.01351011
0.3604,0.01326152
0.36048,0.01332795
0.36056,0.0134493
0.36064,0.01321257
0.36072,0.01240286
0.3608,0.01173189
0.36088,0.01112168
0.36096,0.01075004
0.36104,0.01050154
0.36112,0.009895571
0.3612,0.009691298
0.36128,0.009608767
0.36136,0.008786668
0.36144,0.008107922
0.36152,0.00747752
0.3616,0.006980976
0.36168,0.006544842
0.36176,0.006374594
0.36184,0.006589776
0.36192,0.006489764
0.362,0.006014262
0.36208,0.005799382
0.36216,0.005516979
0.36224,0.004973116
0.36232,0.00451863
0.3624,0.003865764
0.36248,0.003467415
0.36256,0.003582919
0.36264,0.003833739
0.36272,0.003965966
0.3628,0.003512607
0.36288,0.003121219
0.36296,0.002426016
0.36304,0.001707444
0.36312,0.001191949
0.3632,0.0005024783
0.36328,-0.0001065466
0.36336,-0.0009160212
0.36344,-0.001812999
0.36352,-0.002701961
0.3636,-0.002902655
0.36368,-0.003323735
0.36376,-0.003553723
0.36384,-0.004100121
0.36392,-0.004871302
0.364,-0.004898184
0.36408,-0.005109606
0.36416,-0.005872063
0.36424,-0.006154773
0.36432,-0.006059354
0.3644,-0.006195065
0.36448,-0.005907773
0.36456,-0.006023832
0.36464,-0.00712292
0.36472,-0.007604502
0.3648,-0.007256499
0.36488,-0.007466393
0.36496,-0.008352404
0.36504,-0.009293864
0.36512,-0.01058157
0.3652,-0.01121723
0.36528,-0.01128898
0.36536,-0.01143866
0.36544,-0.01104979
0.36552,-0.01080274
0.3656,-0.01125266
0.36568,-0.01121286
0.36576,-0.0109223
0.36584,-0.01183306
0.36592,-0.01294383
0.366,-0.01297536
0.36608,-0.01320522
0.36616,-0.01335437
0.36624,-0.01356001
0.36632,-0.01395559
0.3664,-0.01483948
0.36648,-0.01596517
0.36656,-0.01699953
0.36664,-0.0180192
0.36672,-0.01917149
0.3668,-0.01982853
0.36688,-0.01968187
0.36696,-0.01973137
0.36704,-0.01953784
0.36712,-0.01922473
0.3672,-0.01903542
0.36728,-0.01968483
0.36736,-0.01989712
0.36744,-0.01939128
0.36752,-0.01925943
0.3676,-0.01927553
0.36768,-0.01949889
0.36776,-0.01899378
0.36784,-0.0186888
0.36792,-0.01855647
0.368,-0.01795983
0.36808,-0.01846362
0.36816,-0.0187303
0.36824,-0.01818207
0.36832,-0.01771454
0.3684,-0.01778596
0.36848,-0.01764944
0.36856,-0.01740484
0.36864,-0.01702271
0.36872,-0.01677683
0.3688,-0.01683235
0.36888,-0.0165704
0.36896,-0.01625377
0.36904,-0.01631784
0.36912,-0.01588057
0.3692,-0.01531811
0.36928,-0.01518184
0.36936,-0.01474998
0.36944,-0.01473417
0.36952,-0.01511359
0.3696,-0.01531033
0.36968,-0.01542236
0.36976,-0.01541836
0.36984,-0.01591788
0.36992,-0.01579284
0.37,-0.01525666
0.37008,-0.01485361
0.37016,-0.01454815
0.37024,-0.01440124
0.37032,-0.01423345
0.3704,-0.01320454
0.37048,-0.01250115
0.37056,-0.01220379
0.37064,-0.01177636
0.37072,-0.01155405
0.3708,-0.01196352
0.37088,-0.01221064
0.37096,-0.01179289
0.37104,-0.01117639
0.37112,-0.01036308
0.3712,-0.01011605
0.37128,-0.00973667
0.37136,-0.008106623
0.37144,-0.006784522
0.37152,-0.00617791
0.3716,-0.006389637
0.37168,-0.006611882
0.37176,-0.007331102
0.37184,-0.008487584
0.37192,-0.008704031
0.372,-0.008506217
0.37208,-0.009015901
0.37216,-0.008674176
0.37224,-0.006975342
0.37232,-0.005222836
0.3724,-0.004247737
0.37248,-0.003634757
0.37256,-0.003177722
0.37264,-0.003044845
0.37272,-0.002602557
0.3728,-0.002071891
0.37288,-0.001089816
0.37296,-0.0006550553
0.37304,-0.0004716803
0.37312,5.983249e-05
0.3732,0.00066624
0.37328,0.001159632
0.37336,0.001403353
0.37344,0.002463588
0.37352,0.003658901
0.3736,0.00424852
0.37368,0.004824285
0.37376,0.005501868
0.37384,0.006638954
0.37392,0.007422433
0.374,0.008356459
0.37408,0.008800586
0.37416,0.00874633
0.37424,0.008935429
0.37432,0.009081377
0.3744,0.008805341
0.37448,0.008828108
0.37456,0.009057567
0.37464,0.008999854
0.37472,0.009465247
0.3748,0.009732359
0.37488,0.01016455
0.37496,0.01066545
0.37504,0.01092643
0.37512,0.0114176
0.3752,0.0122641
0.37528,0.01335641
0.37536,0.01471214
0.37544,0.01483147
0.37552,0.01470248
0.3756,0.01419246
0.37568,0.01456232
0.37576,0.01507583
0.37584,0.01545904
0.37592,0.01616988
0.376,0.01631874
0.37608,0.01599092
0.37616,0.0159416
0.37624,0.01601131
0.37632,0.01555293
0.3764,0.01496401
0.37648,0.01464253
0.37656,0.01503577
0.37664,0.01543602
0.37672,0.01561296
0.3768,0.01548587
0.37688,0.01500859
0.37696,0.01478831
0.37704,0.01512655
0.37712,0.01532227
0.3772,0.01537052
0.37728,0.01540934
0.37736,0.01493559
0.37744,0.01476988
0.37752,0.01448068
0.3776,0.01434486
0.37768,0.01451677
0.37776,0.01459099
0.37784,0.01425148
0.37792,0.01361758
0.378,0.01344817
0.37808,0.01363915
0.37816,0.01385507
0.37824,0.01398869
0.37832,0.01351798
0.3784,0.01305442
0.37848,0.01301764
0.37856,0.01374254
0.37864,0.01454666
0.37872,0.01468448
0.3788,0.01415012
0.37888,0.01309668
0.37896,0.01237004
0.37904,0.01170575
0.37912,0.0114615
0.3792,0.01167689
0.37928,0.0116345
0.37936,0.01138261
0.37944,0.01100279
0.37952,0.01123564
0.3796,0.01129829
0.37968,0.0115548
0.37976,0.01176034
0.37984,0.01253926
0.37992,0.01312899
0.38,0.01285176
0.38008,0.01287812
0.38016,0.0133115
0.38024,0.01287344
0.38032,0.01215339
0.3804,0.0119489
0.38048,0.0117027
0.38056,0.01111632
0.38064,0.01114729
0.38072,0.01182385
0.3808,0.01241639
0.38088,0.01204101
0.38096,0.01119678
0.38104,0.01047147
0.38112,0.0100585
0.3812,0.009925256
0.38128,0.009775275
0.38136,0.009877417
0.38144,0.01021474
0.38152,0.01068846
0.3816,0.01079199
0.38168,0.01045856
0.38176,0.009751028
0.38184,0.009591892
0.38192,0.009754595
0.382,0.009262764
0.38208,0.008684702
0.38216,0.007645893
0.38224,0.006545802
0.38232,0.005941327
0.3824,0.005580456
0.38248,0.00537677
0.38256,0.005389124
0.38264,0.004462356
0.38272,0.003544862
0.3828,0.002722314
0.38288,0.001880518
0.38296,0.0009712102
0.38304,0.0004900227
0.38312,-0.0002548215
0.3832,-0.00106826
0.38328,-0.001486063
0.38336,-0.00198565
0.38344,-0.002298365
0.38352,-0.002592364
0.3836,-0.002479441
0.38368,-0.002049114
0.38376,-0.001982722
0.38384,-0.001816881
0.38392,-0.002037483
0.384,-0.003292651
0.38408,-0.004817932
0.38416,-0.005556195
0.38424,-0.005438133
0.38432,-0.005674728
0.3844,-0.006912023
0.38448,-0.007411758
0.38456,-0.007408479
0.38464,-0.007695506
0.38472,-0.007825426
0.3848,-0.007702377
0.38488,-0.008204854
0.38496,-0.009163795
0.38504,-0.0101949
0.38512,-0.01055914
0.3852,-0.01081539
0.38528,-0.01138927
0.38536,-0.01147897
0.38544,-0.01136432
0.38552,-0.01184817
0.3856,-0.01232454
0.38568,-0.0130035
0.38576,-0.0142401
0.38584,-0.01510681
0.38592,-0.01494304
0.386,-0.01445147
0.38608,-0.01358005
0.38616,-0.01288821
0.38624,-0.01275771
0.38632,-0.01279053
0.3864,-0.01296418
0.38648,-0.01273066
0.38656,-0.01289853
0.38664,-0.01303163
0.38672,-0.0130616
0.3868,-0.0129742
0.38688,-0.01241456
0.38696,-0.01220196
0.38704,-0.01203529
0.38712,-0.01214895
0.3872,-0.01199469
0.38728,-0.0120079
0.38736,-0.01197121
0.38744,-0.01188234
0.38752,-0.01163225
0.3876,-0.01105521
0.38768,-0.01076357
0.38776,-0.01080658
0.38784,-0.0112007
0.38792,-0.01153366
0.388,-0.01110027
0.38808,-0.01129452
0.38816,-0.01146405
0.38824,-0.01179888
0.38832,-0.01242271
0.3884,-0.01225775
0.38848,-0.01153696
0.38856,-0.01102614
0.38864,-0.01003889
0.38872,-0.009197041
0.3888,-0.009787437
0.38888,-0.01008324
0.38896,-0.01024739
0.38904,-0.01042802
0.38912,-0.01055395
0.3892,-0.010781
0.38928,-0.01117577
0.38936,-0.01131486
0.38944,-0.01099578
0.38952,-0.01043594
0.3896,-0.009989505
0.38968,-0.009728849
0.38976,-0.00988517
0.38984,-0.009751619
0.38992,-0.009424856
0.39,-0.008554333
0.39008,-0.007802835
0.39016,-0.007406115
0.39024,-0.006589566
0.39032,-0.005755249
0.3904,-0.005136214
0.39048,-0.005043475
0.39056,-0.00474641
0.39064,-0.004005888
0.39072,-0.004162472
0.3908,-0.004420209
0.39088,-0.004516293
0.39096,-0.004009911
0.39104,-0.003081746
0.39112,-0.002491811
0.3912,-0.002161539
0.39128,-0.001998813
0.39136,-0.00177999
0.39144,-0.001727056
0.39152,-0.001307189
0.3916,-0.001440881
0.39168,-0.001499337
0.39176,-0.001049133
0.39184,-0.0008000821
0.39192,-0.0008055647
0.392,-0.0007319229
0.39208,-0.0009763278
0.39216,-0.001067067
0.39224,-0.0009906479
0.39232,-0.000937658
0.3924,-0.0005801726
0.39248,-0.0007790437
0.39256,-0.0006819655
0.39264,-0.0003737138
0.39272,-0.0005466166
0.3928,-0.001177766
0.39288,-0.001238602
0.39296,-0.00107188
0.39304,-0.0004872719
0.39312,2.221281e-05
0.3932,0.001249678
0.39328,0.002376863
0.39336,0.003280818
0.39344,0.003980466
0.39352,0.004673735
0.3936,0.005017722
0.39368,0.005660503
0.39376,0.006403391
0.39384,0.006231413
0.39392,0.006143699
0.394,0.006964907
0.39408,0.007596851
0.39416,0.007957334
0.39424,0.00861565
0.39432,0.009268899
0.3944,0.009958748
0.39448,0.01014157
0.39456,0.01000795
0.39464,0.01000556
0.39472,0.009845266
0.3948,0.009625203
0.39488,0.00977027
0.39496,0.01044193
0.39504,0.01083088
0.39512,0.01135375
0.3952,0.01185969
0.39528,0.01156264
0.39536,0.01111613
0.39544,0.01052572
0.39552,0.0101606
0.3956,0.009913227
0.39568,0.009076643
0.39576,0.0084379
0.39584,0.007606489
0.39592,0.006964306
0.396,0.006588719
0.39608,0.006649774
0.39616,0.007078644
0.39624,0.007606516
0.39632,0.008311405
0.3964,0.008576347
0.39648,0.008643812
0.39656,0.008488565
0.39664,0.008551228
0.39672,0.00884637
0.3968,0.009011365
0.39688,0.00883391
0.39696,0.009789553
0.39704,0.01083436
0.39712,0.01140574
0.3972,0.01196405
0.39728,0.01213326
0.39736,0.01213905
0.39744,0.01235604
0.39752,0.01250406
0.3976,0.01202976
0.39768,0.01213197
0.39776,0.01245425
0.39784,0.01226903
0.39792,0.01155152
0.398,0.01023904
0.39808,0.01026383
0.39816,0.01141712
0.39824,0.01240407
0.39832,0.01304477
0.3984,0.01313147
0.39848,0.01253846
0.39856,0.01164716
0.39864,0.0114331
0.39872,0.01152913
0.3988,0.01122777
0.39888,0.01074207
0.39896,0.01022341
0.39904,0.009974169
0.39912,0.01026155
0.3992,0.01014271
0.39928,0.01005476
0.39936,0.009842974
0.39944,0.009212385
0.39952,0.008978206
0.3996,0.008830522
0.39968,0.009293981
0.39976,0.009893938
0.39984,0.0103375
0.39992,0.009816134
0.4,0.009538013
0.40008,0.009718654
0.40016,0.009495151
0.40024,0.009382286
0.40032,0.009021284
0.4004,0.008446114
0.40048,0.008127477
0.40056,0.007911972
0.40064,0.00738175
0.40072,0.006887934
0.4008,0.006708787
0.40088,0.006717466
0.40096,0.006343412
0.40104,0.005965305
0.40112,0.004945803
0.4012,0.004109807
0.40128,0.003970006
0.40136,0.00301737
0.40144,0.002085634
0.40152,0.001483895
0.4016,0.001105991
0.40168,0.001374756
0.40176,0.001829302
0.40184,0.002527879
0.40192,0.002216876
0.402,0.001888435
0.40208,0.001792737
0.40216,0.002354269
0.40224,0.002229031
0.40232,0.001344646
0.4024,0.001086466
0.40248,0.0002616443
0.40256,-0.0006408959
0.40264,-0.001741692
0.40272,-0.00261738
0.4028,-0.003067611
0.40288,-0.003455035
0.40296,-0.004086725
0.40304,-0.004470532
0.40312,-0.0050322
0.4032,-0.005374622
0.40328,-0.005493751
0.40336,-0.005893586
0.40344,-0.006243149
0.40352,-0.006553734
0.4036,-0.006524122
0.40368,-0.006057302
0.40376,-0.005741463
0.40384,-0.006256917
0.40392,-0.006712069
0.404,-0.007255177
0.40408,-0.008187309
0.40416,-0.008365308
0.40424,-0.00831806
0.40432,-0.00796312
0.4044,-0.007493637
0.40448,-0.007755253
0.40456,-0.008418906
0.40464,-0.009118541
0.40472,-0.009636123
0.4048,-0.01021811
0.40488,-0.01045807
0.40496,-0.01053563
0.40504,-0.01080034
0.40512,-0.01084791
0.4052,-0.01128027
0.40528,-0.01173008
0.40536,-0.01195236
0.40544,-0.01185984
0.40552,-0.01088803
0.4056,-0.01023115
0.40568,-0.01022625
0.40576,-0.01021896
0.40584,-0.009990385
0.40592,-0.01033173
0.406,-0.01098897
0.40608,-0.01178021
0.40616,-0.01173189
0.40624,-0.01137896
0.40632,-0.01118299
0.4064,-0.01116095
0.40648,-0.01062134
0.40656,-0.01041805
0.40664,-0.01041403
0.40672,-0.01024748
0.4068,-0.01067385
0.40688,-0.01082548
0.40696,-0.01092356
0.40704,-0.01082511
0.40712,-0.01112863
0.4072,-0.01071707
0.40728,-0.01076906
0.40736,-0.01177312
0.40744,-0.01248522
0.40752,-0.01345659
0.4076,-0.01387995
0.40768,-0.01403643
0.40776,-0.01481847
0.40784,-0.01539308
0.40792,-0.01559111
0.408,-0.01583258
0.40808,-0.0161809
0.40816,-0.01610681
0.40824,-0.01655079
0.40832,-0.01659798
0.4084,-0.01634145
0.40848,-0.01585443
0.40856,-0.01508309
0.40864,-0.0147088
0.40872,-0.01397796
0.4088,-0.0135519
0.40888,-0.01340235
0.40896,-0.01309893
0.40904,-0.0122713
0.40912,-0.01170108
0.4092,-0.01193232
0.40928,-0.01226775
0.40936,-0.01338841
0.40944,-0.01439176
0.40952,-0.01445294
0.4096,-0.01349917
0.40968,-0.01259064
0.40976,-0.01254925
0.40984,-0.01329487
0.40992,-0.0140288
0.41,-0.01379004
0.41008,-0.01342644
0.41016,-0.01231648
0.41024,-0.01133746
0.41032,-0.01046153
0.4104,-0.00947574
0.41048,-0.008488156
0.41056,-0.007863685
0.41064,-0.007279965
0.41072,-0.006409255
0.4108,-0.005837516
0.41088,-0.005298083
0.41096,-0.00538536
0.41104,-0.005789366
0.41112,-0.005912047
0.4112,-0.005469524
0.41128,-0.005310714
0.41136,-0.004764985
0.41144,-0.004102518
0.41152,-0.003081861
0.4116,-0.002171719
0.41168,-0.001549822
0.41176,-0.001130347
0.41184,-0.0005528843
0.41192,0.000356003
0.412,0.001264356
0.41208,0.002054315
0.41216,0.002451718
0.41224,0.002267621
0.41232,0.002179871
0.4124,0.002471283
0.41248,0.002719658
0.41256,0.003349588
0.41264,0.004493379
0.41272,0.00577954
0.4128,0.006422223
0.41288,0.006938765
0.41296,0.007078239
0.41304,0.007717475
0.41312,0.008337438
0.4132,0.008947748
0.41328,0.009186747
0.41336,0.008838953
0.41344,0.007941849
0.41352,0.007498382
0.4136,0.008075128
0.41368,0.008668607
0.41376,0.008820943
0.41384,0.009092155
0.41392,0.00995681
0.414,0.01067841
0.41408,0.01126844
0.41416,0.01184419
0.41424,0.01157008
0.41432,0.01101243
0.4144,0.01025503
0.41448,0.00985714
0.41456,0.009965041
0.41464,0.009824344
0.41472,0.009839712
0.4148,0.01013641
0.41488,0.01029484
0.41496,0.01004221
0.41504,0.01061275
0.41512,0.01065113
0.4152,0.01055164
0.41528,0.01079847
0.41536,0.01040552
0.41544,0.009913177
0.41552,0.01010486
0.4156,0.01064989
0.41568,0.01159404
0.41576,0.01212897
0.41584,0.01268736
0.41592,0.01341735
0.416,0.01371265
0.41608,0.01376061
0.41616,0.01392112
0.41624,0.01400066
0.41632,0.01369195
0.4164,0.0132415
0.41648,0.01298857
0.41656,0.01260128
0.41664,0.01209285
0.41672,0.01199037
0.4168,0.01231262
0.41688,0.01304599
0.41696,0.01319759
0.41704,0.01321899
0.41712,0.01393144
0.4172,0.01519113
0.41728,0.01575254
0.41736,0.01583814
0.41744,0.01591329
0.41752,0.01613078
0.4176,0.01655803
0.41768,0.01685627
0.41776,0.01729236
0.41784,0.0175627
0.41792,0.01795411
0.418,0.01804768
0.41808,0.01781413
0.41816,0.01789739
0.41824,0.01777669
0.41832,0.01759553
0.4184,0.01737995
0.41848,0.01681444
0.41856,0.0161951
0.41864,0.01566353
0.41872,0.01540172
0.4188,0.01547244
0.41888,0.01508704
0.41896,0.01450116
0.41904,0.01386896
0.41912,0.01298165
0.4192,0.01252266
0.41928,0.01273858
0.41936,0.01258688
0.41944,0.01189328
0.41952,0.01134035
0.4196,0.01127626
0.41968,0.01156577
0.41976,0.01116391
0.41984,0.01031672
0.41992,0.009399773
0.42,0.008696789
0.42008,0.008437999
0.42016,0.007743254
0.42024,0.007061741
0.42032,0.006513882
0.4204,0.006249137
0.42048,0.005542738
0.42056,0.004621169
0.42064,0.003864336
0.42072,0.002897334
0.4208,0.002218191
0.42088,0.001773809
0.42096,0.001695778
0.42104,0.001322582
0.42112,0.001999063
0.4212,0.002766686
0.42128,0.003282833
0.42136,0.003204355
0.42144,0.002985794
0.42152,0.003340058
0.4216,0.004129009
0.42168,0.004546319
0.42176,0.004198333
0.42184,0.004148287
0.42192,0.003775747
0.422,0.003067405
0.42208,0.003057574
0.42216,0.002342797
0.42224,0.002247954
0.42232,0.00153003
0.4224,0.0008591554
0.42248,0.0004814427
0.42256,-0.000219782
0.42264,-0.0004909884
0.42272,-0.0005303374
0.4228,-0.0005761148
0.42288,-0.001330896
0.42296,-0.002191397
0.42304,-0.003326132
0.42312,-0.004062349
0.4232,-0.004837077
0.42328,-0.004965536
0.42336,-0.005324275
0.42344,-0.005500533
0.42352,-0.005946079
0.4236,-0.005852004
0.42368,-0.006048686
0.42376,-0.006295863
0.42384,-0.006392295
0.42392,-0.007301067
0.424,-0.007951627
0.42408,-0.00859784
0.42416,-0.009312412
0.42424,-0.009860629
0.42432,-0.01068033
0.4244,-0.01098426
0.42448,-0.01045755
0.42456,-0.009884436
0.42464,-0.01007563
0.42472,-0.01043275
0.4248,-0.01097398
0.42488,-0.01112264
0.42496,-0.0107743
0.42504,-0.01065915
0.42512,-0.01093207
0.4252,-0.01152664
0.42528,-0.01233238
0.42536,-0.01330285
0.42544,-0.01405292
0.42552,-0.01385841
0.4256,-0.01339703
0.42568,-0.01343366
0.42576,-0.0139016
0.42584,-0.01429649
0.42592,-0.01432699
0.426,-0.01404993
0.42608,-0.01416548
0.42616,-0.01359171
0.42624,-0.01331937
0.42632,-0.01349501
0.4264,-0.0135105
0.42648,-0.01322944
0.42656,-0.01289388
0.42664,-0.0131299
0.42672,-0.01292823
0.4268,-0.01327145
0.42688,-0.01351075
0.42696,-0.01341218
0.42704,-0.01260389
0.42712,-0.0114338
0.4272,-0.01179625
0.42728,-0.01310767
0.42736,-0.01410256
0.42744,-0.01489918
0.42752,-0.01541117
0.4276,-0.01527236
0.42768,-0.01532737
0.42776,-0.0148196
0.42784,-0.01428387
0.42792,-0.01415278
0.428,-0.01440791
0.42808,-0.01477022
0.42816,-0.01441657
0.42824,-0.01441008
0.42832,-0.01453604
0.4284,-0.0146594
0.42848,-0.01535178
0.42856,-0.01631038
0.42864,-0.01648183
0.42872,-0.01610017
0.4288,-0.01516016
0.42888,-0.01418283
0.42896,-0.01401141
0.42904,-0.01370332
0.42912,-0.01280423
0.4292,-0.01179377
0.42928,-0.01144526
0.42936,-0.01105036
0.42944,-0.010482
0.42952,-0.009779878
0.4296,-0.009657905
0.42968,-0.009564982
0.42976,-0.008812345
0.42984,-0.008541915
0.42992,-0.008917384
0.43,-0.008565694
0.43008,-0.008031666
0.43016,-0.007822938
0.43024,-0.007544337
0.43032,-0.007204536
0.4304,-0.007125003
0.43048,-0.007343992
0.43056,-0.007138069
0.43064,-0.006942548
0.43072,-0.006916325
0.4308,-0.006767864
0.43088,-0.006677956
0.43096,-0.006769374
0.43104,-0.0064012
0.43112,-0.005780939
0.4312,-0.005525901
0.43128,-0.005584427
0.43136,-0.00518109
0.43144,-0.004101321
0.43152,-0.002752127
0.4316,-0.002047328
0.43168,-0.002115101
0.43176,-0.001989522
0.43184,-0.001763669
0.43192,-0.001821433
0.432,-0.001287189
0.43208,-7.735204e-05
0.43216,0.0003660372
0.43224,0.0001657063
0.43232,0.0001234102
0.4324,-0.0001652757
0.43248,0.0001202162
0.43256,0.001320163
0.43264,0.002082831
0.43272,0.002578717
0.4328,0.002710853
0.43288,0.002990284
0.43296,0.003133437
0.43304,0.003388208
0.43312,0.003911064
0.4332,0.00390874
0.43328,0.00451242
0.43336,0.005037481
0.43344,0.005037421
0.43352,0.005274464
0.4336,0.005486582
0.43368,0.005961765
0.43376,0.006354826
0.43384,0.006333597
0.43392,0.006643497
0.434,0.007255388
0.43408,0.007550996
0.43416,0.007336448
0.43424,0.007342073
0.43432,0.007503303
0.4344,0.007591335
0.43448,0.007942288
0.43456,0.008217434
0.43464,0.007917808
0.43472,0.006988486
0.4348,0.00626286
0.43488,0.006712375
0.43496,0.007049643
0.43504,0.007334897
0.43512,0.008314142
0.4352,0.009358616
0.43528,0.009513824
0.43536,0.009250269
0.43544,0.009351387
0.43552,0.009787469
0.4356,0.01032453
0.43568,0.01057397
0.43576,0.01138798
0.43584,0.01229129
0.43592,0.01251433
0.436,0.01304837
0.43608,0.01330121
0.43616,0.01357878
0.43624,0.01370272
0.43632,0.01436627
0.4364,0.01485608
0.43648,0.01498547
0.43656,0.01481079
0.43664,0.01514714
0.43672,0.01549178
0.4368,0.01538527
0.43688,0.01518464
0.43696,0.01510511
0.43704,0.01470478
0.43712,0.01380617
0.4372,0.01335671
0.43728,0.01349259
0.43736,0.0139168
0.43744,0.01409312
0.43752,0.01383798
0.4376,0.01356499
0.43768,0.01311399
0.43776,0.01297715
0.43784,0.01348302
0.43792,0.0133908
0.438,0.0135231
0.43808,0.01359319
0.43816,0.01358043
0.43824,0.01350979
0.43832,0.01286098
0.4384,0.01238502
0.43848,0.01191853
0.43856,0.01148842
0.43864,0.01115569
0.43872,0.01085564
0.4388,0.01059517
0.43888,0.01067943
0.43896,0.01019157
0.43904,0.009545757
0.43912,0.008896093
0.4392,0.008590855
0.43928,0.008049041
0.43936,0.008035501
0.43944,0.007964178
0.43952,0.00777563
0.4396,0.007765435
0.43968,0.007441354
0.43976,0.007109715
0.43984,0.007399827
0.43992,0.007356101
0.44,0.007875589
0.44008,0.007725703
0.44016,0.007599062
0.44024,0.007979493
0.44032,0.008275683
0.4404,0.008993527
0.44048,0.008557292
0.44056,0.007188921
0.44064,0.006317366
0.44072,0.006690383
0.4408,0.006412421
0.44088,0.005608396
0.44096,0.005241833
0.44104,0.005070965
0.44112,0.005368765
0.4412,0.006235598
0.44128,0.006415457
0.44136,0.006186646
0.44144,0.006069521
0.44152,0.005268391
0.4416,0.004214759
0.44168,0.003098778
0.44176,0.002143744
0.44184,0.001262763
0.44192,0.001052407
0.442,0.001435084
0.44208,0.001178484
0.44216,0.0006018445
0.44224,-0.000335548
0.44232,-0.0005664834
0.4424,-0.0008434325
0.44248,-0.001126832
0.44256,-0.001227186
0.44264,-0.001519662
0.44272,-0.002320371
0.4428,-0.003568693
0.44288,-0.004539246
0.44296,-0.004543527
0.44304,-0.005163583
0.44312,-0.005636889
0.4432,-0.005725581
0.44328,-0.005861175
0.44336,-0.005728066
0.44344,-0.006018866
0.44352,-0.005840805
0.4436,-0.005701756
0.44368,-0.005770175
0.44376,-0.006127357
0.44384,-0.006813944
0.44392,-0.007962039
0.444,-0.008688219
0.44408,-0.009109493
0.44416,-0.009418586
0.44424,-0.009085954
0.44432,-0.008319969
0.4444,-0.008671729
0.44448,-0.008830513
0.44456,-0.008776228
0.44464,-0.008841364
0.44472,-0.009465812
0.4448,-0.01047587
0.44488,-0.01098548
0.44496,-0.01163076
0.44504,-0.01207182
0.44512,-0.01238661
0.4452,-0.01230002
0.44528,-0.01174658
0.44536,-0.01127653
0.44544,-0.01145065
0.44552,-0.01114984
0.4456,-0.0105545
0.44568,-0.01039306
0.44576,-0.01134312
0.44584,-0.01213011
0.44592,-0.01235548
0.446,-0.01239205
0.44608,-0.01196263
0.44616,-0.01163939
0.44624,-0.01207102
0.44632,-0.01233923
0.4464,-0.01259169
0.44648,-0.01313447
0.44656,-0.01321458
0.44664,-0.01303886
0.44672,-0.01300931
0.4468,-0.01352698
0.44688,-0.01332963
0.44696,-0.0132291
0.44704,-0.01373194
0.44712,-0.01419577
0.4472,-0.0138744
0.44728,-0.01359074
0.44736,-0.01348232
0.44744,-0.0134439
0.44752,-0.01404867
0.4476,-0.01450927
0.44768,-0.01498854
0.44776,-0.01475008
0.44784,-0.01446802
0.44792,-0.01482947
0.448,-0.01543396
0.44808,-0.01514152
0.44816,-0.01467862
0.44824,-0.01486777
0.44832,-0.01480513
0.4484,-0.01417031
0.44848,-0.01375536
0.44856,-0.01354827
0.44864,-0.01352998
0.44872,-0.01347138
0.4488,-0.01320488
0.44888,-0.01295843
0.44896,-0.01295277
0.44904,-0.01287013
0.44912,-0.01288639
0.4492,-0.0125716
0.44928,-0.01238057
0.44936,-0.01239537
0.44944,-0.0130478
0.44952,-0.01307153
0.4496,-0.01213535
0.44968,-0.01095733
0.44976,-0.01026413
0.44984,-0.009510458
0.44992,-0.008889828
0.45,-0.009138551
0.45008,-0.01020714
0.45016,-0.01027465
0.45024,-0.009256512
0.45032,-0.008369542
0.4504,-0.008286662
0.45048,-0.008444523
0.45056,-0.008037784
0.45064,-0.008005121
0.45072,-0.008028316
0.4508,-0.008319162
0.45088,-0.00801694
0.45096,-0.007136411
0.45104,-0.006512674
0.45112,-0.005945847
0.4512,-0.00544765
0.45128,-0.004437384
0.45136,-0.003630463
0.45144,-0.002867401
0.45152,-0.003011104
0.4516,-0.003481904
0.45168,-0.004017704
0.45176,-0.003929128
0.45184,-0.004030481
0.45192,-0.004430918
0.452,-0.004172161
0.45208,-0.004108564
0.45216,-0.003605881
0.45224,-0.003143829
0.45232,-0.002665824
0.4524,-0.002897127
0.45248,-0.002918537
0.45256,-0.002803993
0.45264,-0.002639076
0.45272,-0.002783104
0.4528,-0.002624372
0.45288,-0.002555465
0.45296,-0.002748552
0.45304,-0.002774637
0.45312,-0.002631275
0.4532,-0.00301281
0.45328,-0.002893779
0.45336,-0.002590498
0.45344,-0.002534371
0.45352,-0.002718712
0.4536,-0.002857672
0.45368,-0.002552421
0.45376,-0.00199353
0.45384,-0.00130338
0.45392,-0.000465419
0.454,0.0006000313
0.45408,0.001161922
0.45416,0.00129573
0.45424,0.001246543
0.45432,0.001443264
0.4544,0.002222595
0.45448,0.003347802
0.45456,0.00518059
0.45464,0.006812483
0.45472,0.008654508
0.4548,0.01009415
0.45488,0.01101771
0.45496,0.01167184
0.45504,0.01201175
0.45512,0.01214967
0.4552,0.01229567
0.45528,0.01198528
0.45536,0.01219734
0.45544,0.01250435
0.45552,0.01270113
0.4556,0.013122
0.45568,0.01397495
0.45576,0.01425917
0.45584,0.01451431
0.45592,0.01468005
0.456,0.01450277
0.45608,0.01456867
0.45616,0.0147418
0.45624,0.01513347
0.45632,0.01576108
0.4564,0.0159379
0.45648,0.01636
0.45656,0.01623617
0.45664,0.01667405
0.45672,0.01779907
0.4568,0.01806407
0.45688,0.01888768
0.45696,0.01963817
0.45704,0.02068779
0.45712,0.02160878
0.4572,0.02221558
0.45728,0.02260288
0.45736,0.02304981
0.45744,0.02316174
0.45752,0.02287053
0.4576,0.02227872
0.45768,0.02177509
0.45776,0.0216805
0.45784,0.02118952
0.45792,0.02094887
0.458,0.0214602
0.45808,0.02246076
0.45816,0.02268527
0.45824,0.02143995
0.45832,0.02058187
0.4584,0.02001383
0.45848,0.0195081
0.45856,0.01914187
0.45864,0.01861005
0.45872,0.01829142
0.4588,0.01909348
0.45888,0.01948453
0.45896,0.01928516
0.45904,0.01888027
0.45912,0.0180974
0.4592,0.01692528
0.45928,0.01508075
0.45936,0.01413097
0.45944,0.01430781
0.45952,0.01478366
0.4596,0.01510298
0.45968,0.0151434
0.45976,0.01560855
0.45984,0.01593645
0.45992,0.01604516
0.46,0.01584826
0.46008,0.01594585
0.46016,0.01616013
0.46024,0.01628889
0.46032,0.01611422
0.4604,0.01588446
0.46048,0.01536434
0.46056,0.01500194
0.46064,0.01458632
0.46072,0.014017
0.4608,0.01334305
0.46088,0.01281818
0.46096,0.01176967
0.46104,0.01141985
0.46112,0.01076087
0.4612,0.01044601
0.46128,0.01092656
0.46136,0.01096071
0.46144,0.01020326
0.46152,0.009898695
0.4616,0.009455728
0.46168,0.009029311
0.46176,0.008270246
0.46184,0.007627855
0.46192,0.007393297
0.462,0.007272254
0.46208,0.007302727
0.46216,0.00746952
0.46224,0.007143356
0.46232,0.007093032
0.4624,0.006959122
0.46248,0.006387061
0.46256,0.005488869
0.46264,0.005265249
0.46272,0.005100783
0.4628,0.005055929
0.46288,0.005315838
0.46296,0.005130575
0.46304,0.004197385
0.46312,0.002556893
0.4632,0.001101642
0.46328,-0.0007464569
0.46336,-0.002337051
0.46344,-0.00313613
0.46352,-0.003494801
0.4636,-0.003803733
0.46368,-0.004569648
0.46376,-0.005394293
0.46384,-0.005934798
0.46392,-0.006159797
0.464,-0.006641467
0.46408,-0.007404949
0.46416,-0.007591072
0.46424,-0.007249665
0.46432,-0.007313034
0.4644,-0.00812451
0.46448,-0.008072532
0.46456,-0.0081213
0.46464,-0.008626792
0.46472,-0.008988041
0.4648,-0.009748598
0.46488,-0.01048389
0.46496,-0.01090231
0.46504,-0.01149574
0.46512,-0.01232433
0.4652,-0.01355647
0.46528,-0.01472854
0.46536,-0.01543502
0.46544,-0.01572387
0.46552,-0.01554407
0.4656,-0.01553097
0.46568,-0.01523961
0.46576,-0.01532213
0.46584,-0.01620752
0.46592,-0.01679175
0.466,-0.01722369
0.46608,-0.01714397
0.46616,-0.01713618
0.46624,-0.01705786
0.46632,-0.01703677
0.4664,-0.01692227
0.46648,-0.01692693
0.46656,-0.01653857
0.46664,-0.01650789
0.46672,-0.01649471
0.4668,-0.01688695
0.46688,-0.01700885
0.46696,-0.01683653
0.46704,-0.0170104
0.46712,-0.0177471
0.4672,-0.01872288
0.46728,-0.01862901
0.46736,-0.0177565
0.46744,-0.01648242
0.46752,-0.01526871
0.4676,-0.01464013
0.46768,-0.01484527
0.46776,-0.01525111
0.46784,-0.01560134
0.46792,-0.0160168
0.468,-0.01589725
0.46808,-0.01562011
0.46816,-0.01523873
0.46824,-0.01525747
0.46832,-0.01512311
0.4684,-0.01538928
0.46848,-0.01529565
0.46856,-0.01603203
0.46864,-0.01717846
0.46872,-0.01745771
0.4688,-0.01695549
0.46888,-0.01656546
0.46896,-0.01689559
0.46904,-0.01687451
0.46912,-0.01672214
0.4692,-0.01639544
0.46928,-0.01650494
0.46936,-0.01709921
0.46944,-0.0179557
0.46952,-0.01832867
0.4696,-0.01883416
0.46968,-0.01948934
0.46976,-0.01970293
0.46984,-0.019825
0.46992,-0.01996802
0.47,-0.02050385
0.47008,-0.02092617
0.47016,-0.02057583
0.47024,-0.02033613
0.47032,-0.01995077
0.4704,-0.01979599
0.47048,-0.01950908
0.47056,-0.01909498
0.47064,-0.01928015
0.47072,-0.01936065
0.4708,-0.01869978
0.47088,-0.01790307
0.47096,-0.01710248
0.47104,-0.01641663
0.47112,-0.01618117
0.4712,-0.01596186
0.47128,-0.01529064
0.47136,-0.01475997
0.47144,-0.01365946
0.47152,-0.01228066
0.4716,-0.0116751
0.47168,-0.01189628
0.47176,-0.01136145
0.47184,-0.01070812
0.47192,-0.009400921
0.472,-0.008202202
0.47208,-0.007204297
0.47216,-0.007038381
0.47224,-0.007592992
0.47232,-0.007248142
0.4724,-0.006708968
0.47248,-0.00620806
0.47256,-0.005992675
0.47264,-0.005388998
0.47272,-0.003917538
0.4728,-0.002948379
0.47288,-0.002080583
0.47296,-0.001639994
0.47304,-0.000990446
0.47312,-0.0009160065
0.4732,-0.0003702294
0.47328,-5.049826e-05
0.47336,0.0006310898
0.47344,0.001328412
0.47352,0.00174478
0.4736,0.002449845
0.47368,0.003358832
0.47376,0.004251888
0.47384,0.005208091
0.47392,0.005678219
0.474,0.0053836
0.47408,0.005406189
0.47416,0.005907417
0.47424,0.006212229
0.47432,0.006784873
0.4744,0.007062318
0.47448,0.007455977
0.47456,0.007802543
0.47464,0.008903097
0.47472,0.01054319
0.4748,0.0117768
0.47488,0.01280746
0.47496,0.01325409
0.47504,0.01335908
0.47512,0.01373916
0.4752,0.01400787
0.47528,0.01379936
0.47536,0.01385789
0.47544,0.01348964
0.47552,0.01346142
0.4756,0.01407222
0.47568,0.01451326
0.47576,0.01419604
0.47584,0.01381582
0.47592,0.01426993
0.476,0.01445293
0.47608,0.01490217
0.47616,0.01532725
0.47624,0.01518871
0.47632,0.0158283
0.4764,0.01615359
0.47648,0.01626197
0.47656,0.01645317
0.47664,0.0167223
0.47672,0.01631018
0.4768,0.01622687
0.47688,0.01708986
0.47696,0.01840452
0.47704,0.01935754
0.47712,0.01957583
0.4772,0.01962241
0.47728,0.01985099
0.47736,0.0198866
0.47744,0.01977944
0.47752,0.01974862
0.4776,0.02019666
0.47768,0.02059255
0.47776,0.02000735
0.47784,0.01866311
0.47792,0.01714347
0.478,0.01662567
0.47808,0.01748558
0.47816,0.01936457
0.47824,0.02071877
0.47832,0.02144567
0.4784,0.02195433
0.47848,0.02204067
0.47856,0.02207569
0.47864,0.02264007
0.47872,0.02316036
0.4788,0.02375815
0.47888,0.0238264
0.47896,0.0241584
0.47904,0.02471503
0.47912,0.02424036
0.4792,0.02376064
0.47928,0.02316091
0.47936,0.02355453
0.47944,0.02435574
0.47952,0.02524447
0.4796,0.02614274
0.47968,0.02740734
0.47976,0.029136
0.47984,0.03024568
0.47992,0.03154254
0.48,0.0327697
0.48008,0.03356627
0.48016,0.03390911
0.48024,0.03417674
0.48032,0.03430051
0.4804,0.03451216
0.48048,0.03465968
0.48056,0.03487832
0.48064,0.03524847
0.48072,0.03554026
0.4808,0.03549966
0.48088,0.03587316
0.48096,0.03598865
0.48104,0.03673155
0.48112,0.03773985
0.4812,0.03844045
0.48128,0.03912411
0.48136,0.03961102
0.48144,0.04019302
0.48152,0.04054374
0.4816,0.04145215
0.48168,0.04199611
0.48176,0.04203365
0.48184,0.04146503
0.48192,0.04074293
0.482,0.04095879
0.48208,0.04174322
0.48216,0.04179621
0.48224,0.04189856
0.48232,0.04207697
0.4824,0.04148014
0.48248,0.04045032
0.48256,0.03964768
0.48264,0.03951012
0.48272,0.03959586
0.4828,0.03914362
0.48288,0.03982357
0.48296,0.04041091
0.48304,0.04033738
0.48312,0.04047766
0.4832,0.04052263
0.48328,0.04036113
0.48336,0.04045159
0.48344,0.04049882
0.48352,0.04107061
0.4836,0.04141944
0.48368,0.04160535
0.48376,0.04102759
0.48384,0.04079001
0.48392,0.04077956
0.484,0.04053796
0.48408,0.04055837
0.48416,0.04056918
0.48424,0.04012964
0.48432,0.0392092
0.4844,0.03808314
0.48448,0.03639597
0.48456,0.03383477
0.48464,0.03247661
0.48472,0.03151628
0.4848,0.03012039
0.48488,0.02922573
0.48496,0.02794836
0.48504,0.02648452
0.48512,0.02516441
0.4852,0.02349097
0.48528,0.02206406
0.48536,0.02035004
0.48544,0.01950399
0.48552,0.01888831
0.4856,0.01790909
0.48568,0.01623779
0.48576,0.01422927
0.48584,0.01267167
0.48592,0.01110571
0.486,0.008813754
0.48608,0.006162265
0.48616,0.003880056
0.48624,0.002079723
0.48632,0.0008380882
0.4864,-0.0002283456
0.48648,-0.001808547
0.48656,-0.003257629
0.48664,-0.00501594
0.48672,-0.006882403
0.4868,-0.008763921
0.48688,-0.01022244
0.48696,-0.0109582
0.48704,-0.01214676
0.48712,-0.01238649
0.4872,-0.01296586
0.48728,-0.01414383
0.48736,-0.01543935
