time_s,voltage_v
0.0,-0.03411719
0.0002,-0.03398754
0.0004,-0.03353699
0.0006,-0.03345232
0.0008,-0.03406176
0.001,-0.03409195
0.0012,-0.03417147
0.0014,-0.03493495
0.0016,-0.03577128
0.0018,-0.03688067
0.002,-0.03699074
0.0022,-0.03802362
0.0024,-0.03903194
0.0026,-0.0380354
0.0028,-0.03577988
0.003,-0.03383486
0.0032,-0.03266896
0.0034,-0.03269031
0.0036,-0.03192624
0.0038,-0.02882467
0.004,-0.02617711
0.0042,-0.02433497
0.0044,-0.02271405
0.0046,-0.02021055
0.0048,-0.01729314
0.005,-0.01498769
0.0052,-0.01260838
0.0054,-0.01030721
0.0056,-0.008115737
0.0058,-0.006572814
0.006,-0.005095491
0.0062,-0.002432771
0.0064,0.0007867617
0.0066,0.003798307
0.0068,0.006957396
0.007,0.008632401
0.0072,0.01196518
0.0074,0.01526275
0.0076,0.01756301
0.0078,0.01908896
0.008,0.02033349
0.0082,0.0227599
0.0084,0.02369312
0.0086,0.02410712
0.0088,0.02669632
0.009,0.02870276
0.0092,0.03145606
0.0094,0.03306292
0.0096,0.03369858
0.0098,0.03427333
0.01,0.03446442
0.0102,0.03425972
0.0104,0.03492887
0.0106,0.03637628
0.0108,0.0367303
0.011,0.03629318
0.0112,0.03729363
0.0114,0.03794187
0.0116,0.03927509
0.0118,0.03794875
0.012,0.0372972
0.0122,0.03627438
0.0124,0.03566886
0.0126,0.03549635
0.0128,0.03519268
0.013,0.03322145
0.0132,0.03238434
0.0134,0.03109104
0.0136,0.02950778
0.0138,0.02702514
0.014,0.02588313
0.0142,0.0239914
0.0144,0.01964567
0.0146,0.01707896
0.0148,0.01333886
0.015,0.01225462
0.0152,0.01043496
0.0154,0.009036221
0.0156,0.008091613
0.0158,0.006220411
0.016,0.004043575
0.0162,0.001467833
0.0164,3.751156e-05
0.0166,-0.002137482
0.0168,-0.005153513
0.017,-0.007600676
0.0172,-0.009100121
0.0174,-0.0109016
0.0176,-0.01399203
0.0178,-0.01627495
0.018,-0.01798292
0.0182,-0.02053502
0.0184,-0.02392405
0.0186,-0.02609583
0.0188,-0.02808808
0.019,-0.03116553
0.0192,-0.03182791
0.0194,-0.03474783
0.0196,-0.03594487
0.0198,-0.03687293
0.02,-0.03748129
0.0202,-0.03880736
0.0204,-0.04068341
0.0206,-0.04137334
0.0208,-0.0418408
0.021,-0.04177222
0.0212,-0.04118293
0.0214,-0.03997021
0.0216,-0.03959224
0.0218,-0.04007594
0.022,-0.03849052
0.0222,-0.03852482
0.0224,-0.03915757
0.0226,-0.03658817
0.0228,-0.03449062
0.023,-0.03278963
0.0232,-0.03075757
0.0234,-0.02854106
0.0236,-0.02657598
0.0238,-0.02615999
0.024,-0.02397307
0.0242,-0.02110751
0.0244,-0.01897596
0.0246,-0.01645686
0.0248,-0.0133874
0.025,-0.01025267
0.0252,-0.006994684
0.0254,-0.005948272
0.0256,-0.004568409
0.0258,-0.002588722
0.026,-0.0004047262
0.0262,0.002586159
0.0264,0.005528327
0.0266,0.006897517
0.0268,0.008318532
0.027,0.01106437
0.0272,0.01388573
0.0274,0.01742312
0.0276,0.02000812
0.0278,0.02047374
0.028,0.02081911
0.0282,0.0219611
0.0284,0.02427947
0.0286,0.0265147
0.0288,0.0286331
0.029,0.0320271
0.0292,0.03252776
0.0294,0.03279085
0.0296,0.03533291
0.0298,0.03555388
0.03,0.03520152
0.0302,0.03648704
0.0304,0.03717324
0.0306,0.0388125
0.0308,0.04038635
0.031,0.03982953
0.0312,0.03974473
0.0314,0.0396476
0.0316,0.03899358
0.0318,0.03752005
0.032,0.03662047
0.0322,0.03694555
0.0324,0.03875563
0.0326,0.03923955
0.0328,0.03662863
0.033,0.03299457
0.0332,0.03129846
0.0334,0.03027669
0.0336,0.02793462
0.0338,0.02618741
0.034,0.02533129
0.0342,0.02182848
0.0344,0.01854885
0.0346,0.01785777
0.0348,0.0169148
0.035,0.01589165
0.0352,0.01397814
0.0354,0.01038431
0.0356,0.006775142
0.0358,0.005348484
0.036,0.002846495
0.0362,-0.0008563357
0.0364,-0.004061757
0.0366,-0.005589721
0.0368,-0.00455592
0.037,-0.006269005
0.0372,-0.01044524
0.0374,-0.01233733
0.0376,-0.01368379
0.0378,-0.01697029
0.038,-0.02057016
0.0382,-0.02303512
0.0384,-0.02512902
0.0386,-0.02763055
0.0388,-0.02939274
0.039,-0.03084911
0.0392,-0.03044817
0.0394,-0.03254173
0.0396,-0.03387039
0.0398,-0.03345408
0.04,-0.03534524
0.0402,-0.03574615
0.0404,-0.03604495
0.0406,-0.0383857
0.0408,-0.03986906
0.041,-0.03963283
0.0412,-0.03959057
0.0414,-0.03948863
0.0416,-0.0384398
0.0418,-0.03849805
0.042,-0.04003076
0.0422,-0.0418466
0.0424,-0.04109765
0.0426,-0.03882867
0.0428,-0.03697845
0.043,-0.03644034
0.0432,-0.03467451
0.0434,-0.03147864
0.0436,-0.02860391
0.0438,-0.02761263
0.044,-0.0261219
0.0442,-0.02419627
0.0444,-0.02080202
0.0446,-0.01839599
0.0448,-0.01631199
0.045,-0.01549991
0.0452,-0.01467692
0.0454,-0.01290298
0.0456,-0.01088362
0.0458,-0.00880996
0.046,-0.006632679
0.0462,-0.003762841
0.0464,0.0001018811
0.0466,0.003893283
0.0468,0.006243353
0.047,0.007612744
0.0472,0.009999895
0.0474,0.01257717
0.0476,0.01399135
0.0478,0.01549255
0.048,0.01783194
0.0482,0.01992993
0.0484,0.02213588
0.0486,0.02580229
0.0488,0.02813864
0.049,0.02974484
0.0492,0.03124212
0.0494,0.03402223
0.0496,0.03491486
0.0498,0.0346639
0.05,0.03738886
0.0502,0.03883522
0.0504,0.03900612
0.0506,0.03947321
0.0508,0.03939971
0.051,0.04024508
0.0512,0.03965859
0.0514,0.03916512
0.0516,0.03945276
0.0518,0.03943924
0.052,0.03755771
0.0522,0.03686253
0.0524,0.03653979
0.0526,0.03548599
0.0528,0.03466118
0.053,0.03322225
0.0532,0.03071753
0.0534,0.02766993
0.0536,0.02675484
0.0538,0.02556554
0.054,0.02344573
0.0542,0.02179916
0.0544,0.0203606
0.0546,0.01869716
0.0548,0.01503451
0.055,0.01225187
0.0552,0.01173831
0.0554,0.0102916
0.0556,0.009739648
0.0558,0.006010538
0.056,0.0030111
0.0562,0.0008781922
0.0564,-0.002582109
0.0566,-0.006573175
0.0568,-0.01088382
0.057,-0.01349625
0.0572,-0.01509585
0.0574,-0.01673572
0.0576,-0.02021948
0.0578,-0.02281113
0.058,-0.02473718
0.0582,-0.02660754
0.0584,-0.0273453
0.0586,-0.02926769
0.0588,-0.03137752
0.059,-0.0323576
0.0592,-0.03270808
0.0594,-0.03206074
0.0596,-0.03293008
0.0598,-0.03391713
0.06,-0.03487258
0.0602,-0.03637641
0.0604,-0.03620016
0.0606,-0.03785939
0.0608,-0.03801747
0.061,-0.0370064
0.0612,-0.03633473
0.0614,-0.03749298
0.0616,-0.03620455
0.0618,-0.03593076
0.062,-0.03690388
0.0622,-0.03794233
0.0624,-0.03781312
0.0626,-0.03721212
0.0628,-0.03614806
0.063,-0.03375047
0.0632,-0.03105572
0.0634,-0.02900493
0.0636,-0.02926593
0.0638,-0.02824599
0.064,-0.02591652
0.0642,-0.02408049
0.0644,-0.02231308
0.0646,-0.02022875
0.0648,-0.01653221
0.065,-0.01356304
0.0652,-0.01187549
0.0654,-0.009484923
0.0656,-0.008056089
0.0658,-0.005653481
0.066,-0.004114461
0.0662,-0.002842846
0.0664,0.0005641301
0.0666,0.004759113
0.0668,0.006085001
0.067,0.007712783
0.0672,0.01171906
0.0674,0.01444238
0.0676,0.01635613
0.0678,0.01871481
0.068,0.02191355
0.0682,0.02486823
0.0684,0.02724407
0.0686,0.02856508
0.0688,0.03063623
0.069,0.03302403
0.0692,0.03501213
0.0694,0.03631769
0.0696,0.03801467
0.0698,0.04004882
0.07,0.03894649
0.0702,0.03814309
0.0704,0.03892931
0.0706,0.0392785
0.0708,0.0401266
0.071,0.04072208
0.0712,0.03892827
0.0714,0.038752
0.0716,0.03864797
0.0718,0.03797829
0.072,0.03806178
0.0722,0.03886703
0.0724,0.03846574
0.0726,0.03738528
0.0728,0.03652617
0.073,0.03584438
0.0732,0.03346545
0.0734,0.03102459
0.0736,0.02801664
0.0738,0.02347748
0.074,0.02183558
0.0742,0.02091546
0.0744,0.01797427
0.0746,0.01596349
0.0748,0.01488665
0.075,0.01363948
0.0752,0.01075127
0.0754,0.007980778
0.0756,0.00492979
0.0758,0.002647747
0.076,0.0005770974
0.0762,-0.0005805869
0.0764,-0.003251088
0.0766,-0.005892069
0.0768,-0.007642161
0.077,-0.01084823
0.0772,-0.01247389
0.0774,-0.01447724
0.0776,-0.01703864
0.0778,-0.01839782
0.078,-0.02054654
0.0782,-0.02353907
0.0784,-0.02466119
0.0786,-0.02588051
0.0788,-0.02895382
0.079,-0.03133266
0.0792,-0.03217921
0.0794,-0.03352432
0.0796,-0.03379123
0.0798,-0.03379479
0.08,-0.0341661
0.0802,-0.03625571
0.0804,-0.03766344
0.0806,-0.03774828
0.0808,-0.03686833
0.081,-0.03565487
0.0812,-0.03568193
0.0814,-0.03663218
0.0816,-0.03672681
0.0818,-0.03709842
0.082,-0.03658653
0.0822,-0.03609876
0.0824,-0.03560683
0.0826,-0.03419198
0.0828,-0.03304248
0.083,-0.03219329
0.0832,-0.03229591
0.0834,-0.03098451
0.0836,-0.02856943
0.0838,-0.02712555
0.084,-0.02409189
0.0842,-0.02131587
0.0844,-0.0190607
0.0846,-0.01598358
0.0848,-0.01496627
0.085,-0.01402183
0.0852,-0.0124169
0.0854,-0.009101871
0.0856,-0.007597674
0.0858,-0.005437348
0.086,-0.001700372
0.0862,0.001283544
0.0864,0.0052026
0.0866,0.006914959
0.0868,0.006834649
0.087,0.008767948
0.0872,0.01193977
0.0874,0.01502892
0.0876,0.01762093
0.0878,0.01967068
0.088,0.02160726
0.0882,0.0228195
0.0884,0.02534426
0.0886,0.02727378
0.0888,0.02978548
0.089,0.03090697
0.0892,0.03255822
0.0894,0.034467
0.0896,0.03562854
0.0898,0.03626672
0.09,0.0369995
0.0902,0.03753263
0.0904,0.03709845
0.0906,0.03748485
0.0908,0.03829873
0.091,0.03834404
0.0912,0.0390861
0.0914,0.03998836
0.0916,0.03889146
0.0918,0.03844135
0.092,0.03761195
0.0922,0.03736029
0.0924,0.03673665
0.0926,0.03467758
0.0928,0.03361357
0.093,0.03289158
0.0932,0.03283957
0.0934,0.03223749
0.0936,0.03063495
0.0938,0.02907427
0.094,0.0265773
0.0942,0.02299199
0.0944,0.0188591
0.0946,0.01713958
0.0948,0.01613976
0.095,0.01409239
0.0952,0.01179254
0.0954,0.01079407
0.0956,0.009412633
0.0958,0.005965241
0.096,0.00273179
0.0962,0.000383641
0.0964,-0.0002196728
0.0966,-0.003148077
0.0968,-0.006851153
0.097,-0.008934279
0.0972,-0.01083353
0.0974,-0.01341537
0.0976,-0.01581021
0.0978,-0.01856363
0.098,-0.02030419
0.0982,-0.02309122
0.0984,-0.02650549
0.0986,-0.02950528
0.0988,-0.03011932
0.099,-0.03279938
0.0992,-0.03537583
0.0994,-0.03541061
0.0996,-0.0363535
0.0998,-0.03628686
0.1,-0.03684829
0.1002,-0.03711043
0.1004,-0.03732029
0.1006,-0.03911889
0.1008,-0.03859305
0.101,-0.03857844
0.1012,-0.03729969
0.1014,-0.03631565
0.1016,-0.03493091
0.1018,-0.03494782
0.102,-0.03608109
0.1022,-0.03654489
0.1024,-0.03640528
0.1026,-0.03469251
0.1028,-0.0335489
0.103,-0.03078962
0.1032,-0.02847731
0.1034,-0.02764863
0.1036,-0.02724314
0.1038,-0.02495072
0.104,-0.02133128
0.1042,-0.01900608
0.1044,-0.01734751
0.1046,-0.01493935
0.1048,-0.01281819
0.105,-0.0107841
0.1052,-0.0095847
0.1054,-0.008394227
0.1056,-0.006389449
0.1058,-0.004152374
0.106,-0.0005904752
0.1062,-0.0004452615
0.1064,0.002021317
0.1066,0.005251221
0.1068,0.007509415
0.107,0.01016367
0.1072,0.01291847
0.1074,0.01639135
0.1076,0.01917401
0.1078,0.02180591
0.108,0.02517446
0.1082,0.02683243
0.1084,0.02777923
0.1086,0.03033072
0.1088,0.03123837
0.109,0.03171045
0.1092,0.03292813
0.1094,0.0336928
0.1096,0.03360315
0.1098,0.03368981
0.11,0.03531683
0.1102,0.03757557
0.1104,0.03677525
0.1106,0.03647112
0.1108,0.03755103
0.111,0.03806341
0.1112,0.03749932
0.1114,0.03849035
0.1116,0.03875874
0.1118,0.03683008
0.112,0.03548958
0.1122,0.0368827
0.1124,0.03744623
0.1126,0.03500301
0.1128,0.03250031
0.113,0.02994959
0.1132,0.02823707
0.1134,0.02621601
0.1136,0.02472882
0.1138,0.0239851
0.114,0.02226046
0.1142,0.01966958
0.1144,0.01925155
0.1146,0.01789039
0.1148,0.01483967
0.115,0.0115113
0.1152,0.008847968
0.1154,0.005520056
0.1156,0.004830483
0.1158,0.002608916
0.116,-0.0006307389
0.1162,-0.003593973
0.1164,-0.00644311
0.1166,-0.008206666
0.1168,-0.009445774
0.117,-0.01035505
0.1172,-0.01255245
0.1174,-0.01517574
0.1176,-0.0181836
0.1178,-0.02276121
0.118,-0.02486324
0.1182,-0.02604152
0.1184,-0.02699324
0.1186,-0.0279073
0.1188,-0.02789685
0.119,-0.02942567
0.1192,-0.03122512
0.1194,-0.03341809
0.1196,-0.03454497
0.1198,-0.03373003
0.12,-0.03308295
0.1202,-0.03451081
0.1204,-0.03619864
0.1206,-0.03650251
0.1208,-0.03709369
0.121,-0.0367563
0.1212,-0.03653672
0.1214,-0.03707106
0.1216,-0.03580999
0.1218,-0.03473344
0.122,-0.03479332
0.1222,-0.03349493
0.1224,-0.0342218
0.1226,-0.03420373
0.1228,-0.03370881
0.123,-0.03288804
0.1232,-0.03165694
0.1234,-0.02953319
0.1236,-0.02768144
0.1238,-0.02669708
0.124,-0.02499457
0.1242,-0.0220118
0.1244,-0.02045286
0.1246,-0.01923375
0.1248,-0.01599432
0.125,-0.01537452
0.1252,-0.01187882
0.1254,-0.008787579
0.1256,-0.007632139
0.1258,-0.005563349
0.126,-0.00212795
0.1262,0.00173435
0.1264,0.004387695
0.1266,0.006313815
0.1268,0.007853277
0.127,0.01032355
0.1272,0.01243341
0.1274,0.01600128
0.1276,0.01766263
0.1278,0.01871173
0.128,0.02147287
0.1282,0.0244022
0.1284,0.02427585
0.1286,0.02547632
0.1288,0.02772363
0.129,0.0289451
0.1292,0.03008503
0.1294,0.03188938
0.1296,0.0328535
0.1298,0.03374111
0.13,0.03527622
0.1302,0.03580986
0.1304,0.03609089
0.1306,0.03712916
0.1308,0.03738797
0.131,0.03646193
0.1312,0.03484573
0.1314,0.03492022
0.1316,0.03505283
0.1318,0.03565122
0.132,0.03437252
0.1322,0.03460482
0.1324,0.03584551
0.1326,0.03531118
0.1328,0.03517024
0.133,0.03336609
0.1332,0.03116591
0.1334,0.02992585
0.1336,0.02866975
0.1338,0.0265746
0.134,0.02343004
0.1342,0.0199512
0.1344,0.0186147
0.1346,0.01577899
0.1348,0.01435568
0.135,0.01407992
0.1352,0.01217723
0.1354,0.01037125
0.1356,0.007885198
0.1358,0.00556353
0.136,0.002791874
0.1362,0.0008379953
0.1364,-0.002373379
0.1366,-0.005692591
0.1368,-0.007701751
0.137,-0.01073675
0.1372,-0.0128726
0.1374,-0.01471116
0.1376,-0.01672423
0.1378,-0.01856226
0.138,-0.02064257
0.1382,-0.02428143
0.1384,-0.0267675
0.1386,-0.02816828
0.1388,-0.03020594
0.139,-0.03087533
0.1392,-0.03099614
0.1394,-0.03133226
0.1396,-0.03211234
0.1398,-0.03293855
0.14,-0.03248228
0.1402,-0.0337866
0.1404,-0.03582228
0.1406,-0.03710949
0.1408,-0.03726568
0.141,-0.03818775
0.1412,-0.03903913
0.1414,-0.03706525
0.1416,-0.03578384
0.1418,-0.03589391
0.142,-0.03669045
0.1422,-0.03736725
0.1424,-0.03670818
0.1426,-0.03643859
0.1428,-0.03602194
0.143,-0.0335539
0.1432,-0.0308927
0.1434,-0.02937745
0.1436,-0.02682508
0.1438,-0.02366202
0.144,-0.02051364
0.1442,-0.01844989
0.1444,-0.01570274
0.1446,-0.01443529
0.1448,-0.01403361
0.145,-0.01288476
0.1452,-0.009830337
0.1454,-0.006044225
0.1456,-0.00534166
0.1458,-0.003522314
0.146,-0.00159633
0.1462,0.0002445366
0.1464,0.00255298
0.1466,0.006403713
0.1468,0.009417012
0.147,0.01115855
0.1472,0.01344218
0.1474,0.0156613
0.1476,0.01709531
0.1478,0.01893913
0.148,0.02033091
0.1482,0.0220206
0.1484,0.02346189
0.1486,0.02551328
0.1488,0.02813756
0.149,0.02836888
0.1492,0.02858326
0.1494,0.02975219
0.1496,0.03162978
0.1498,0.03381162
0.15,0.03614251
0.1502,0.03567404
0.1504,0.03591873
0.1506,0.03449183
0.1508,0.03362558
0.151,0.03346159
0.1512,0.03371
0.1514,0.03496481
0.1516,0.03434671
0.1518,0.03543438
0.152,0.03667489
0.1522,0.03716502
0.1524,0.03659908
0.1526,0.03424543
0.1528,0.03224495
0.153,0.03057424
0.1532,0.02979217
0.1534,0.02885155
0.1536,0.02811076
0.1538,0.02590037
0.154,0.02263696
0.1542,0.01970482
0.1544,0.01745544
0.1546,0.01718254
0.1548,0.01580156
0.155,0.01392084
0.1552,0.01217646
0.1554,0.009807173
0.1556,0.008143716
0.1558,0.006548561
0.156,0.003521154
0.1562,-0.001050119
0.1564,-0.003892886
0.1566,-0.006672285
0.1568,-0.008782526
0.157,-0.0115749
0.1572,-0.01389446
0.1574,-0.0146245
0.1576,-0.01750331
0.1578,-0.0192763
0.158,-0.01953437
0.1582,-0.02087265
0.1584,-0.02238911
0.1586,-0.0233056
0.1588,-0.0249725
0.159,-0.02719698
0.1592,-0.02803954
0.1594,-0.02874893
0.1596,-0.03039494
0.1598,-0.03097773
0.16,-0.0310105
0.1602,-0.03195491
0.1604,-0.03231903
0.1606,-0.03213888
0.1608,-0.03267404
0.161,-0.033708
0.1612,-0.03379742
0.1614,-0.0337673
0.1616,-0.03330909
0.1618,-0.03407172
0.162,-0.03529028
0.1622,-0.03650092
0.1624,-0.03582704
0.1626,-0.03399314
0.1628,-0.03264838
0.163,-0.03052339
0.1632,-0.02749001
0.1634,-0.02550444
0.1636,-0.02513881
0.1638,-0.02483174
0.164,-0.02354233
0.1642,-0.0215066
0.1644,-0.01994411
0.1646,-0.01832204
0.1648,-0.01547718
0.165,-0.01260634
0.1652,-0.01082909
0.1654,-0.009497442
0.1656,-0.006599751
0.1658,-0.004107513
0.166,-0.0008442664
0.1662,0.002030906
0.1664,0.003946313
0.1666,0.005161002
0.1668,0.007280543
0.167,0.009711673
0.1672,0.01290946
0.1674,0.0173531
0.1676,0.01820016
0.1678,0.0189278
0.168,0.01989138
0.1682,0.02261763
0.1684,0.02536221
0.1686,0.02660288
0.1688,0.02777129
0.169,0.03004605
0.1692,0.03134195
0.1694,0.03218805
0.1696,0.03162212
0.1698,0.03171457
0.17,0.03298142
0.1702,0.03353366
0.1704,0.03388106
0.1706,0.03440939
0.1708,0.03525738
0.171,0.03472387
0.1712,0.03415766
0.1714,0.03412145
0.1716,0.03373251
0.1718,0.03335724
0.172,0.03482534
0.1722,0.03610254
0.1724,0.03626219
0.1726,0.0341745
0.1728,0.03247452
0.173,0.03140191
0.1732,0.03073259
0.1734,0.02873086
0.1736,0.02707166
0.1738,0.02483501
0.174,0.02240647
0.1742,0.01950611
0.1744,0.01635004
0.1746,0.01450175
0.1748,0.01325164
0.175,0.01185072
0.1752,0.01008821
0.1754,0.008120042
0.1756,0.005650254
0.1758,0.005226173
0.176,0.00387795
0.1762,0.000386473
0.1764,-0.00257332
0.1766,-0.003700402
0.1768,-0.005953304
0.177,-0.007000416
0.1772,-0.008258613
0.1774,-0.01177917
0.1776,-0.0151221
0.1778,-0.01747459
0.178,-0.02020996
0.1782,-0.02304729
0.1784,-0.02502782
0.1786,-0.02726352
0.1788,-0.02944922
0.179,-0.03189726
0.1792,-0.0335357
0.1794,-0.03391454
0.1796,-0.03369389
0.1798,-0.03367831
0.18,-0.03526925
0.1802,-0.03563169
0.1804,-0.03651154
0.1806,-0.03667428
0.1808,-0.03672358
0.181,-0.03602565
0.1812,-0.0345519
0.1814,-0.03356418
0.1816,-0.0328677
0.1818,-0.03287511
0.182,-0.03386855
0.1822,-0.03483702
0.1824,-0.03288111
0.1826,-0.02962952
0.1828,-0.02910572
0.183,-0.0287155
0.1832,-0.02565434
0.1834,-0.02392001
0.1836,-0.02411218
0.1838,-0.02416061
0.184,-0.02106847
0.1842,-0.01951771
0.1844,-0.01698856
0.1846,-0.0133808
0.1848,-0.01050085
0.185,-0.007979332
0.1852,-0.006562166
0.1854,-0.006240856
0.1856,-0.007212681
0.1858,-0.004395664
0.186,-0.000375485
0.1862,0.001775705
0.1864,0.004480313
0.1866,0.009103798
0.1868,0.01174427
0.187,0.01341783
0.1872,0.01663181
0.1874,0.01980564
0.1876,0.022545
0.1878,0.02417619
0.188,0.02657865
0.1882,0.02628641
0.1884,0.02631567
0.1886,0.02823178
0.1888,0.0283398
0.189,0.02799549
0.1892,0.02985262
0.1894,0.03292869
0.1896,0.03238052
0.1898,0.0315276
0.19,0.03078554
0.1902,0.03131005
0.1904,0.03255717
0.1906,0.03307139
0.1908,0.03376693
0.191,0.03362941
0.1912,0.0336979
0.1914,0.03493595
0.1916,0.03431255
0.1918,0.03249513
0.192,0.03205516
0.1922,0.03205149
0.1924,0.03296047
0.1926,0.03175623
0.1928,0.03022871
0.193,0.02864977
0.1932,0.02626264
0.1934,0.02205504
0.1936,0.02009558
0.1938,0.01949091
0.194,0.01780467
0.1942,0.01613683
0.1944,0.01340461
0.1946,0.01083054
0.1948,0.007992906
0.195,0.007573132
0.1952,0.006299972
0.1954,0.004316019
0.1956,0.004432584
0.1958,0.003874553
0.196,0.002726433
0.1962,-8.449802e-05
0.1964,-0.001865821
0.1966,-0.004480001
0.1968,-0.007659914
0.197,-0.009188405
0.1972,-0.01112441
0.1974,-0.01434864
0.1976,-0.01692165
0.1978,-0.01842985
0.198,-0.01971878
0.1982,-0.01991175
0.1984,-0.01982407
0.1986,-0.02182054
0.1988,-0.02433285
0.199,-0.02726582
0.1992,-0.02854159
0.1994,-0.02828695
0.1996,-0.02851616
0.1998,-0.02973272
0.2,-0.02998016
0.2002,-0.03226644
0.2004,-0.03334839
0.2006,-0.03371226
0.2008,-0.03375397
0.201,-0.03303795
0.2012,-0.03250679
0.2014,-0.03362058
0.2016,-0.03463166
0.2018,-0.03423738
0.202,-0.03228915
0.2022,-0.0326211
0.2024,-0.0335765
0.2026,-0.03246906
0.2028,-0.03097397
0.203,-0.02887697
0.2032,-0.02719757
0.2034,-0.02584287
0.2036,-0.02550049
0.2038,-0.02454481
0.204,-0.02150553
0.2042,-0.02011594
0.2044,-0.01935739
0.2046,-0.01666666
0.2048,-0.01199552
0.205,-0.008958746
0.2052,-0.006864772
0.2054,-0.00589956
0.2056,-0.005252624
0.2058,-0.003501665
0.206,-0.001372271
0.2062,0.00188023
0.2064,0.004570332
0.2066,0.005395727
0.2068,0.006733925
0.207,0.008353249
0.2072,0.01048216
0.2074,0.01356722
0.2076,0.01544998
0.2078,0.01680853
0.208,0.01926372
0.2082,0.02058088
0.2084,0.02058823
0.2086,0.02184495
0.2088,0.02358286
0.209,0.02394043
0.2092,0.0255134
0.2094,0.02762145
0.2096,0.02930329
0.2098,0.02970995
0.21,0.03149337
0.2102,0.03269513
0.2104,0.03411801
0.2106,0.03506207
0.2108,0.03477966
0.211,0.03515092
0.2112,0.03633656
0.2114,0.03517475
0.2116,0.03528633
0.2118,0.03554326
0.212,0.03572173
0.2122,0.035139
0.2124,0.03356064
0.2126,0.03139595
0.2128,0.03040726
0.213,0.02840797
0.2132,0.02528037
0.2134,0.0237279
0.2136,0.02209303
0.2138,0.02112006
0.214,0.01831893
0.2142,0.01572098
0.2144,0.01437697
0.2146,0.01363349
0.2148,0.01242447
0.215,0.01189
0.2152,0.009639973
0.2154,0.007173502
0.2156,0.004559224
0.2158,0.003015803
0.216,0.0005865294
0.2162,-0.001965306
0.2164,-0.005395411
0.2166,-0.008683482
0.2168,-0.01061875
0.217,-0.0130293
0.2172,-0.01551213
0.2174,-0.0175273
0.2176,-0.01952284
0.2178,-0.02110177
0.218,-0.02128851
0.2182,-0.02307975
0.2184,-0.02297072
0.2186,-0.02476546
0.2188,-0.02692985
0.219,-0.02588958
0.2192,-0.02688815
0.2194,-0.02817378
0.2196,-0.02970272
0.2198,-0.03202077
0.22,-0.03263853
0.2202,-0.03181047
0.2204,-0.03161773
0.2206,-0.03118988
0.2208,-0.03052916
0.221,-0.02996374
0.2212,-0.0306641
0.2214,-0.03024575
0.2216,-0.03182743
0.2218,-0.03228923
0.222,-0.030955
0.2222,-0.03077489
0.2224,-0.03145776
0.2226,-0.03191047
0.2228,-0.03012741
0.223,-0.03012515
0.2232,-0.02882122
0.2234,-0.02731544
0.2236,-0.02632785
0.2238,-0.02399476
0.224,-0.02065306
0.2242,-0.01646728
0.2244,-0.01293741
0.2246,-0.01003245
0.2248,-0.007700223
0.225,-0.006818791
0.2252,-0.007920026
0.2254,-0.009381782
0.2256,-0.01138672
0.2258,-0.01277863
0.226,-0.0112496
0.2262,-0.007896631
0.2264,-0.004036483
0.2266,0.0001602553
0.2268,0.004426281
0.227,0.0082641
0.2272,0.009997749
0.2274,0.0102742
0.2276,0.01119485
0.2278,0.0137613
0.228,0.01781403
0.2282,0.02129764
0.2284,0.02331233
0.2286,0.02541849
0.2288,0.02839391
0.229,0.0287728
0.2292,0.02814688
0.2294,0.02730099
0.2296,0.02783388
0.2298,0.02873956
0.23,0.03059117
0.2302,0.03136474
0.2304,0.03127646
0.2306,0.03171268
0.2308,0.03438417
0.231,0.03637454
0.2312,0.03688508
0.2314,0.03739279
0.2316,0.0382366
0.2318,0.03945021
0.232,0.03853111
0.2322,0.03860463
0.2324,0.03927331
0.2326,0.03761705
0.2328,0.03647086
0.233,0.03415501
0.2332,0.03133123
0.2334,0.02838668
0.2336,0.0261103
0.2338,0.02341369
0.234,0.02132077
0.2342,0.02030262
0.2344,0.0186153
0.2346,0.01754044
0.2348,0.01296381
0.235,0.009875701
0.2352,0.008749207
0.2354,0.007810604
0.2356,0.006719928
0.2358,0.0048174
0.236,0.002660001
0.2362,-3.623246e-05
0.2364,-0.002349235
0.2366,-0.004846955
0.2368,-0.00751478
0.237,-0.008221976
0.2372,-0.01137407
0.2374,-0.01543176
0.2376,-0.01695993
0.2378,-0.01884351
0.238,-0.02016787
0.2382,-0.02077552
0.2384,-0.02224483
0.2386,-0.02380168
0.2388,-0.02449026
0.239,-0.02626256
0.2392,-0.02719981
0.2394,-0.02767764
0.2396,-0.02911603
0.2398,-0.0313597
0.24,-0.03391431
0.2402,-0.03490208
0.2404,-0.03388793
0.2406,-0.03351998
0.2408,-0.03394314
0.241,-0.03401932
0.2412,-0.03532333
0.2414,-0.03443986
0.2416,-0.03478538
0.2418,-0.03537192
0.242,-0.03573418
0.2422,-0.03625354
0.2424,-0.03463682
0.2426,-0.03209985
0.2428,-0.02977758
0.243,-0.02728973
0.2432,-0.02602957
0.2434,-0.02405709
0.2436,-0.02230148
0.2438,-0.02084516
0.244,-0.01877222
0.2442,-0.0174049
0.2444,-0.0156583
0.2446,-0.01440962
0.2448,-0.01143228
0.245,-0.009743479
0.2452,-0.008120569
0.2454,-0.007132633
0.2456,-0.005697865
0.2458,-0.002502402
0.246,-0.001389664
0.2462,0.0008115031
0.2464,0.00430767
0.2466,0.008227438
0.2468,0.009402564
0.247,0.01013909
0.2472,0.0118963
0.2474,0.01425455
0.2476,0.01610709
0.2478,0.01721314
0.248,0.02100073
0.2482,0.0241908
0.2484,0.02460209
0.2486,0.02456206
0.2488,0.02488385
0.249,0.02695343
0.2492,0.02888519
0.2494,0.02868373
0.2496,0.02973093
0.2498,0.02981191
0.25,0.02782639
0.2502,0.02777804
0.2504,0.0302994
0.2506,0.03262061
0.2508,0.03391742
0.251,0.03427124
0.2512,0.03172152
0.2514,0.02874325
0.2516,0.02729244
0.2518,0.02681135
0.252,0.02666205
0.2522,0.02814087
0.2524,0.02742461
0.2526,0.02625363
0.2528,0.02534881
0.253,0.02392672
0.2532,0.02390559
0.2534,0.02411407
0.2536,0.02353085
0.2538,0.02307524
0.254,0.02186071
0.2542,0.01964076
0.2544,0.01681025
0.2546,0.01457673
0.2548,0.01270405
0.255,0.009780926
0.2552,0.008345011
0.2554,0.005789605
0.2556,0.003818671
0.2558,0.002635518
0.256,0.0004015294
0.2562,-0.001169405
0.2564,-0.001960985
0.2566,-0.004292058
0.2568,-0.006290687
0.257,-0.009629445
0.2572,-0.01274251
0.2574,-0.01553678
0.2576,-0.01709099
0.2578,-0.01845323
0.258,-0.01931932
0.2582,-0.0207369
0.2584,-0.02212964
0.2586,-0.0238855
0.2588,-0.02540027
0.259,-0.02780605
0.2592,-0.02961128
0.2594,-0.02869473
0.2596,-0.02818807
0.2598,-0.02853707
0.26,-0.03005101
0.2602,-0.03120325
0.2604,-0.0314515
0.2606,-0.03255351
0.2608,-0.03240472
0.261,-0.03212824
0.2612,-0.032492
0.2614,-0.0322331
0.2616,-0.03073383
0.2618,-0.02953457
0.262,-0.03023686
0.2622,-0.03222972
0.2624,-0.03150546
0.2626,-0.02941608
0.2628,-0.02835443
0.263,-0.02793518
0.2632,-0.02683188
0.2634,-0.02501895
0.2636,-0.02428938
0.2638,-0.02106719
0.264,-0.01949174
0.2642,-0.01773595
0.2644,-0.01579821
0.2646,-0.01421197
0.2648,-0.01243923
0.265,-0.01017833
0.2652,-0.008178753
0.2654,-0.006216872
0.2656,-0.004821687
0.2658,-0.002050218
0.266,3.481847e-05
0.2662,0.001805727
0.2664,0.003900922
0.2666,0.005364102
0.2668,0.008760427
0.267,0.01061032
0.2672,0.01230547
0.2674,0.01434244
0.2676,0.01625087
0.2678,0.01826626
0.268,0.01992425
0.2682,0.02172408
0.2684,0.02362376
0.2686,0.02522077
0.2688,0.02541865
0.269,0.02776219
0.2692,0.02963093
0.2694,0.03000119
0.2696,0.03072898
0.2698,0.03146206
0.27,0.03232412
0.2702,0.03277865
0.2704,0.03335059
0.2706,0.03341698
0.2708,0.03208238
0.271,0.03459106
0.2712,0.03617313
0.2714,0.03585311
0.2716,0.03628101
0.2718,0.03566564
0.272,0.03443952
0.2722,0.03455466
0.2724,0.03528055
0.2726,0.03470489
0.2728,0.03214477
0.273,0.02999638
0.2732,0.0276584
0.2734,0.02649371
0.2736,0.0257485
0.2738,0.02320797
0.274,0.02092628
0.2742,0.01805279
0.2744,0.0151864
0.2746,0.01363969
0.2748,0.01253941
0.275,0.009684021
0.2752,0.007731304
0.2754,0.007084493
0.2756,0.00520977
0.2758,0.002932783
0.276,0.000457441
0.2762,-0.002780498
0.2764,-0.005254
0.2766,-0.007647704
0.2768,-0.009886429
0.277,-0.009393637
0.2772,-0.010666
0.2774,-0.01233615
0.2776,-0.01596893
0.2778,-0.01910086
0.278,-0.02082009
0.2782,-0.02320754
0.2784,-0.02435876
0.2786,-0.02500147
0.2788,-0.02784363
0.279,-0.03101006
0.2792,-0.03219393
0.2794,-0.03244648
0.2796,-0.03283015
0.2798,-0.03475296
0.28,-0.03570572
0.2802,-0.03691138
0.2804,-0.03743386
0.2806,-0.03764474
0.2808,-0.03646249
0.281,-0.03565729
0.2812,-0.0356692
0.2814,-0.03538255
0.2816,-0.03548475
0.2818,-0.03545665
0.282,-0.03420955
0.2822,-0.03277148
0.2824,-0.03233753
0.2826,-0.03083588
0.2828,-0.02950758
0.283,-0.02768203
0.2832,-0.02688476
0.2834,-0.02504004
0.2836,-0.0231144
0.2838,-0.02140754
0.284,-0.0185653
0.2842,-0.01616275
0.2844,-0.01290932
0.2846,-0.0107246
0.2848,-0.01129828
0.285,-0.01003332
0.2852,-0.007987365
0.2854,-0.006170858
0.2856,-0.003525386
0.2858,-0.0006842192
0.286,0.001913075
0.2862,0.004722307
0.2864,0.006324267
0.2866,0.00757413
0.2868,0.008924132
0.287,0.01047273
0.2872,0.01189269
0.2874,0.01429812
0.2876,0.01685444
0.2878,0.01965758
0.288,0.02099175
0.2882,0.02338341
0.2884,0.02723118
0.2886,0.02962442
0.2888,0.03005394
0.289,0.03129424
0.2892,0.03259243
0.2894,0.03163313
0.2896,0.03188614
0.2898,0.032917
0.29,0.03138961
0.2902,0.03126903
0.2904,0.03122591
0.2906,0.03178763
0.2908,0.03240163
0.291,0.03199288
0.2912,0.03268571
0.2914,0.03351546
0.2916,0.03355418
0.2918,0.03315426
0.292,0.03130161
0.2922,0.0296069
0.2924,0.03040013
0.2926,0.03062337
0.2928,0.0284052
0.293,0.02765392
0.2932,0.02548638
0.2934,0.02368861
0.2936,0.02319694
0.2938,0.0223352
0.294,0.01895422
0.2942,0.01647191
0.2944,0.01482732
0.2946,0.01257198
0.2948,0.01182115
0.295,0.01059553
0.2952,0.008240332
0.2954,0.005480624
0.2956,0.004349357
0.2958,0.002311792
0.296,-0.001032101
0.2962,-0.002542413
0.2964,-0.004625796
0.2966,-0.007194506
0.2968,-0.009457476
0.297,-0.01334111
0.2972,-0.01492643
0.2974,-0.01637808
0.2976,-0.01919896
0.2978,-0.02107247
0.298,-0.02132786
0.2982,-0.02042688
0.2984,-0.02135451
0.2986,-0.02389743
0.2988,-0.02610536
0.299,-0.02742031
0.2992,-0.02783921
0.2994,-0.02821366
0.2996,-0.02928019
0.2998,-0.02995766
0.3,-0.03144277
0.3002,-0.03229679
0.3004,-0.03147802
0.3006,-0.03167323
0.3008,-0.03272668
0.301,-0.03189236
0.3012,-0.03203521
0.3014,-0.03057705
0.3016,-0.02836668
0.3018,-0.02701353
0.302,-0.02708554
0.3022,-0.02705002
0.3024,-0.0266847
0.3026,-0.02637444
0.3028,-0.02524792
0.303,-0.02406108
0.3032,-0.02453457
0.3034,-0.02362925
0.3036,-0.02175658
0.3038,-0.01912756
0.304,-0.01788066
0.3042,-0.01780884
0.3044,-0.01600183
0.3046,-0.01231293
0.3048,-0.01076553
0.305,-0.009802433
0.3052,-0.008186644
0.3054,-0.006354075
0.3056,-0.003594119
0.3058,-0.001381841
0.306,-0.0003644147
0.3062,1.568423e-05
0.3064,0.002461381
0.3066,0.004328169
0.3068,0.006408373
0.307,0.007353586
0.3072,0.009826715
0.3074,0.01272926
0.3076,0.01359583
0.3078,0.01667597
0.308,0.01875502
0.3082,0.02038791
0.3084,0.02197628
0.3086,0.02259273
0.3088,0.02438063
0.309,0.02497951
0.3092,0.02643329
0.3094,0.02768081
0.3096,0.02863993
0.3098,0.02753233
0.31,0.02876741
0.3102,0.03115619
0.3104,0.03149269
0.3106,0.03120834
0.3108,0.02886998
0.311,0.02843289
0.3112,0.02952272
0.3114,0.02979491
0.3116,0.02867729
0.3118,0.02794852
0.312,0.02858334
0.3122,0.0290653
0.3124,0.02843361
0.3126,0.02713848
0.3128,0.02736953
0.313,0.02603904
0.3132,0.02378619
0.3134,0.02178531
0.3136,0.02044575
0.3138,0.01872775
0.314,0.01775737
0.3142,0.01693923
0.3144,0.0154251
0.3146,0.01377296
0.3148,0.01171891
0.315,0.01061846
0.3152,0.009537098
0.3154,0.0082728
0.3156,0.006640656
0.3158,0.003756104
0.316,0.0004028268
0.3162,-0.002610864
0.3164,-0.005609849
0.3166,-0.006966102
0.3168,-0.008038097
0.317,-0.008420615
0.3172,-0.01111001
0.3174,-0.01387938
0.3176,-0.01618266
0.3178,-0.01831035
0.318,-0.01987033
0.3182,-0.0217002
0.3184,-0.02387908
0.3186,-0.02550484
0.3188,-0.0257128
0.319,-0.02734756
0.3192,-0.02743339
0.3194,-0.02799936
0.3196,-0.02791771
0.3198,-0.0277268
0.32,-0.02823411
0.3202,-0.02878665
0.3204,-0.02936397
0.3206,-0.02890871
0.3208,-0.02780906
0.321,-0.02851295
0.3212,-0.02798494
0.3214,-0.02738853
0.3216,-0.02780464
0.3218,-0.02810676
0.322,-0.02884482
0.3222,-0.02892095
0.3224,-0.02769617
0.3226,-0.02610599
0.3228,-0.02512251
0.323,-0.02471066
0.3232,-0.02457751
0.3234,-0.0243879
0.3236,-0.02361382
0.3238,-0.02159914
0.324,-0.01948528
0.3242,-0.01883493
0.3244,-0.01701971
0.3246,-0.01426478
0.3248,-0.01219921
0.325,-0.01020356
0.3252,-0.007370169
0.3254,-0.004610768
0.3256,-0.002751265
0.3258,-7.541466e-06
0.326,0.001529729
0.3262,0.002924121
0.3264,0.005079557
0.3266,0.00628085
0.3268,0.007567194
0.327,0.00857157
0.3272,0.01096764
0.3274,0.01353798
0.3276,0.01691811
0.3278,0.01798741
0.328,0.01953031
0.3282,0.02293479
0.3284,0.02364423
0.3286,0.02540049
0.3288,0.02680787
0.329,0.02821407
0.3292,0.03009961
0.3294,0.03062353
0.3296,0.03052625
0.3298,0.03067734
0.33,0.03171564
0.3302,0.03239936
0.3304,0.0309056
0.3306,0.02993289
0.3308,0.03217328
0.331,0.03186454
0.3312,0.02985051
0.3314,0.02919004
0.3316,0.02903244
0.3318,0.02813244
0.332,0.02806478
0.3322,0.02844227
0.3324,0.02856808
0.3326,0.02651406
0.3328,0.02403069
0.333,0.02223916
0.3332,0.02110186
0.3334,0.02151058
0.3336,0.02110911
0.3338,0.02040409
0.334,0.01776448
0.3342,0.01307441
0.3344,0.01163583
0.3346,0.009379736
0.3348,0.007396659
0.335,0.00644037
0.3352,0.004768859
0.3354,0.003890609
0.3356,0.001217282
0.3358,-0.001948767
0.336,-0.003750099
0.3362,-0.005215692
0.3364,-0.006249375
0.3366,-0.008264668
0.3368,-0.008898358
0.337,-0.008509699
0.3372,-0.01013693
0.3374,-0.01210857
0.3376,-0.01369225
0.3378,-0.0148993
0.338,-0.01586212
0.3382,-0.01720274
0.3384,-0.01873914
0.3386,-0.02119784
0.3388,-0.02344169
0.339,-0.02452632
0.3392,-0.02613321
0.3394,-0.02693049
0.3396,-0.027919
0.3398,-0.02874142
0.34,-0.02960867
0.3402,-0.0295871
0.3404,-0.0287995
0.3406,-0.02972277
0.3408,-0.0294554
0.341,-0.03048668
0.3412,-0.03042416
0.3414,-0.02960223
0.3416,-0.02895475
0.3418,-0.02917451
0.342,-0.02922877
0.3422,-0.03046541
0.3424,-0.03003583
0.3426,-0.02863634
0.3428,-0.02694265
0.343,-0.02587065
0.3432,-0.02663064
0.3434,-0.02512968
0.3436,-0.02461244
0.3438,-0.02297602
0.344,-0.01970376
0.3442,-0.01726714
0.3444,-0.01321197
0.3446,-0.01150455
0.3448,-0.01010627
0.345,-0.008547748
0.3452,-0.007644892
0.3454,-0.007542982
0.3456,-0.005844734
0.3458,-0.003704457
0.346,-0.001571211
0.3462,-7.461685e-05
0.3464,0.001478881
0.3466,0.004088988
0.3468,0.007322784
0.347,0.008964716
0.3472,0.01101753
0.3474,0.01212381
0.3476,0.01356984
0.3478,0.01532797
0.348,0.01703278
0.3482,0.01837098
0.3484,0.01974886
0.3486,0.02124726
0.3488,0.02201613
0.349,0.02271541
0.3492,0.02528098
0.3494,0.02734318
0.3496,0.02685404
0.3498,0.02709641
0.35,0.02925293
0.3502,0.03205942
0.3504,0.03326438
0.3506,0.03163106
0.3508,0.02933079
0.351,0.02976257
0.3512,0.03058187
0.3514,0.03142193
0.3516,0.0314605
0.3518,0.03237925
0.352,0.03246761
0.3522,0.0324834
0.3524,0.03360911
0.3526,0.03200864
0.3528,0.02883065
0.353,0.0261812
0.3532,0.02367673
0.3534,0.02382562
0.3536,0.02157225
0.3538,0.02018961
0.354,0.01782893
0.3542,0.01542956
0.3544,0.01408523
0.3546,0.01182824
0.3548,0.01054845
0.355,0.009559486
0.3552,0.00850455
0.3554,0.006361838
0.3556,0.004338032
0.3558,0.001577522
0.356,-4.128821e-05
0.3562,0.0007575636
0.3564,-0.0004110858
0.3566,-0.003869044
0.3568,-0.003615866
0.357,-0.005207192
0.3572,-0.008413214
0.3574,-0.01055794
0.3576,-0.01199557
0.3578,-0.01438422
0.358,-0.01790961
0.3582,-0.02129771
0.3584,-0.02247636
0.3586,-0.02262325
0.3588,-0.02335219
0.359,-0.02360421
0.3592,-0.02453758
0.3594,-0.02778038
0.3596,-0.02783306
0.3598,-0.02894885
0.36,-0.03006556
0.3602,-0.03033279
0.3604,-0.0331981
0.3606,-0.03351979
0.3608,-0.03402037
0.361,-0.03472229
0.3612,-0.03392369
0.3614,-0.03305353
0.3616,-0.03160443
0.3618,-0.03070921
0.362,-0.02945386
0.3622,-0.03089736
0.3624,-0.03094349
0.3626,-0.02901128
0.3628,-0.0276456
0.363,-0.02529616
0.3632,-0.02335295
0.3634,-0.02076139
0.3636,-0.01913556
0.3638,-0.01903633
0.364,-0.01684929
0.3642,-0.01386267
0.3644,-0.01131679
0.3646,-0.009642303
0.3648,-0.007615098
0.365,-0.005539951
0.3652,-0.002940123
0.3654,-0.002721623
0.3656,-0.002555021
0.3658,-0.0006789588
0.366,0.002463243
0.3662,0.005085222
0.3664,0.005240514
0.3666,0.00650838
0.3668,0.008844308
0.367,0.0130783
0.3672,0.01478923
0.3674,0.0170505
0.3676,0.01909642
0.3678,0.02167406
0.368,0.02252705
0.3682,0.02212469
0.3684,0.02344136
0.3686,0.02531319
0.3688,0.02708768
0.369,0.02973711
0.3692,0.03064922
0.3694,0.03092399
0.3696,0.03048582
0.3698,0.0314894
0.37,0.03109904
0.3702,0.0295337
0.3704,0.02969255
0.3706,0.02950894
0.3708,0.02889822
0.371,0.02904288
0.3712,0.02692658
0.3714,0.02725526
0.3716,0.02741612
0.3718,0.02664999
0.372,0.02835284
0.3722,0.0295596
0.3724,0.02700266
0.3726,0.02548191
0.3728,0.02536444
0.373,0.02423651
0.3732,0.02230632
0.3734,0.01975022
0.3736,0.0175242
0.3738,0.01479432
0.374,0.01070269
0.3742,0.008833929
0.3744,0.006909629
0.3746,0.006801782
0.3748,0.006412442
0.375,0.00650481
0.3752,0.005405346
0.3754,0.003305882
0.3756,0.002597198
0.3758,0.0006148859
0.376,-0.001824644
0.3762,-0.004114231
0.3764,-0.006121931
0.3766,-0.008354478
0.3768,-0.01092285
0.377,-0.0116963
0.3772,-0.01206071
0.3774,-0.01339329
0.3776,-0.01567311
0.3778,-0.01928818
0.378,-0.02211617
0.3782,-0.02223087
0.3784,-0.02264404
0.3786,-0.02310793
0.3788,-0.02336794
0.379,-0.02564624
0.3792,-0.02680955
0.3794,-0.02651206
0.3796,-0.02781926
0.3798,-0.02747259
0.38,-0.02738278
0.3802,-0.02761982
0.3804,-0.0278919
0.3806,-0.02883427
0.3808,-0.02918961
0.381,-0.02961102
0.3812,-0.02967141
0.3814,-0.02943507
0.3816,-0.02896642
0.3818,-0.02896551
0.382,-0.02835314
0.3822,-0.02769903
0.3824,-0.02588425
0.3826,-0.02404515
0.3828,-0.02367965
0.383,-0.02232617
0.3832,-0.02034778
0.3834,-0.01910093
0.3836,-0.01822219
0.3838,-0.01604986
0.384,-0.01365477
0.3842,-0.01253053
0.3844,-0.01064248
0.3846,-0.009346958
0.3848,-0.008037305
0.385,-0.006401741
0.3852,-0.005108824
0.3854,-0.00415379
0.3856,-0.001609225
0.3858,7.771784e-06
0.386,0.001751939
0.3862,0.004143924
0.3864,0.005862744
0.3866,0.006755706
0.3868,0.008444791
0.387,0.01017363
0.3872,0.01263416
0.3874,0.01448235
0.3876,0.01589386
0.3878,0.01778029
0.388,0.0180071
0.3882,0.01927756
0.3884,0.01928299
0.3886,0.02067366
0.3888,0.02186987
0.389,0.02202678
0.3892,0.02198066
0.3894,0.02286975
0.3896,0.02501425
0.3898,0.02529226
0.39,0.0260367
0.3902,0.02708608
0.3904,0.02984159
0.3906,0.0290952
0.3908,0.02853906
0.391,0.02862156
0.3912,0.02774627
0.3914,0.02688014
0.3916,0.02748926
0.3918,0.02873411
0.392,0.02765882
0.3922,0.02675247
0.3924,0.02540585
0.3926,0.02461967
0.3928,0.02408992
0.393,0.02197912
0.3932,0.02081726
0.3934,0.02042567
0.3936,0.01910209
0.3938,0.01682891
0.394,0.01407601
0.3942,0.01169393
0.3944,0.009177554
0.3946,0.009592678
0.3948,0.008670062
0.395,0.006904967
0.3952,0.00443193
0.3954,0.003185054
0.3956,0.002704933
0.3958,0.0003631501
0.396,-0.001692459
0.3962,-0.001703603
0.3964,-0.002618462
0.3966,-0.006198094
0.3968,-0.008822054
0.397,-0.01073471
0.3972,-0.01284841
0.3974,-0.01364172
0.3976,-0.01541452
0.3978,-0.01725048
0.398,-0.01798627
0.3982,-0.0193953
0.3984,-0.02060386
0.3986,-0.02060866
0.3988,-0.02241728
0.399,-0.0246869
0.3992,-0.02454507
0.3994,-0.02428827
0.3996,-0.02431229
0.3998,-0.02457582
0.4,-0.02452212
0.4002,-0.02501363
0.4004,-0.02640587
0.4006,-0.02658525
0.4008,-0.02665695
0.401,-0.02704237
0.4012,-0.02735145
0.4014,-0.02715024
0.4016,-0.02619467
0.4018,-0.0256001
0.402,-0.02520023
0.4022,-0.02600134
0.4024,-0.02760109
0.4026,-0.02680035
0.4028,-0.02587204
0.403,-0.0242405
0.4032,-0.02478022
0.4034,-0.02345234
0.4036,-0.02048311
0.4038,-0.01694194
0.404,-0.01464857
0.4042,-0.01334001
0.4044,-0.01095945
0.4046,-0.009718063
0.4048,-0.007711533
0.405,-0.006222487
0.4052,-0.005769579
0.4054,-0.005148401
0.4056,-0.00488593
0.4058,-0.003075353
0.406,-0.0008036582
0.4062,0.0008647459
0.4064,0.003363973
0.4066,0.005595529
0.4068,0.00681056
0.407,0.0088026
0.4072,0.01028303
0.4074,0.01235658
0.4076,0.01462233
0.4078,0.01617857
0.408,0.01695746
0.4082,0.01787513
0.4084,0.01964087
0.4086,0.02122249
0.4088,0.02242562
0.409,0.02442784
0.4092,0.02549117
0.4094,0.02629892
0.4096,0.02820651
0.4098,0.02860419
0.41,0.02949651
0.4102,0.03029745
0.4104,0.03153808
0.4106,0.03181976
0.4108,0.03154217
0.411,0.0309469
0.4112,0.03035949
0.4114,0.02955901
0.4116,0.02928774
0.4118,0.02944263
0.412,0.02997733
0.4122,0.028173
0.4124,0.02632949
0.4126,0.02444897
0.4128,0.02256862
0.413,0.02254249
0.4132,0.02168465
0.4134,0.01942944
0.4136,0.01846793
0.4138,0.01756411
0.414,0.01479685
0.4142,0.0125672
0.4144,0.01168711
0.4146,0.01140047
0.4148,0.009290008
0.415,0.005731207
0.4152,0.002979964
0.4154,0.001836026
0.4156,0.00323865
0.4158,0.001813523
0.416,2.939136e-05
0.4162,-0.002254932
0.4164,-0.005717467
0.4166,-0.007003655
0.4168,-0.008255533
0.417,-0.009800575
0.4172,-0.0132818
0.4174,-0.01557535
0.4176,-0.01679538
0.4178,-0.01817291
0.418,-0.01830374
0.4182,-0.01970041
0.4184,-0.02129208
0.4186,-0.02235048
0.4188,-0.02442702
0.419,-0.02462834
0.4192,-0.02492398
0.4194,-0.02590304
0.4196,-0.02748284
0.4198,-0.02803566
0.42,-0.02599106
0.4202,-0.02480431
0.4204,-0.02632163
0.4206,-0.02749806
0.4208,-0.02831862
0.421,-0.02847666
0.4212,-0.02872465
0.4214,-0.02889991
0.4216,-0.02783085
0.4218,-0.02644359
0.422,-0.02687711
0.4222,-0.02649018
0.4224,-0.02652263
0.4226,-0.02665997
0.4228,-0.02508311
0.423,-0.02370576
0.4232,-0.02242533
0.4234,-0.02113881
0.4236,-0.01868739
0.4238,-0.01736002
0.424,-0.01503387
0.4242,-0.01317206
0.4244,-0.01221182
0.4246,-0.01052352
0.4248,-0.008454042
0.425,-0.007563174
0.4252,-0.006310357
0.4254,-0.006435388
0.4256,-0.006385989
0.4258,-0.004986368
0.426,-0.003264745
0.4262,-0.0006377099
0.4264,0.002207386
0.4266,0.00502227
0.4268,0.005668881
0.427,0.008185813
0.4272,0.01160718
0.4274,0.01378672
0.4276,0.01587937
0.4278,0.0175935
0.428,0.01924253
0.4282,0.02055232
0.4284,0.02217184
0.4286,0.02311017
0.4288,0.02429068
0.429,0.02582859
0.4292,0.02727776
0.4294,0.02762217
0.4296,0.02864309
0.4298,0.02907415
0.43,0.02851091
0.4302,0.02759654
0.4304,0.02829032
0.4306,0.0283992
0.4308,0.0264171
0.431,0.02432464
0.4312,0.0246434
0.4314,0.02509528
0.4316,0.02444534
0.4318,0.02420411
0.432,0.02418175
0.4322,0.02562817
0.4324,0.02509095
0.4326,0.02405484
0.4328,0.02444026
0.433,0.02425614
0.4332,0.02408225
0.4334,0.02370174
0.4336,0.02230291
0.4338,0.01997416
0.434,0.01755967
0.4342,0.01583453
0.4344,0.01254134
0.4346,0.01024842
0.4348,0.009703703
0.435,0.007798609
0.4352,0.006265281
0.4354,0.004195814
0.4356,0.004905076
0.4358,0.005621959
0.436,0.002447654
0.4362,0.0008537467
0.4364,-0.00114732
0.4366,-0.004917693
0.4368,-0.007964687
0.437,-0.01075636
0.4372,-0.01277607
0.4374,-0.01310764
0.4376,-0.01433031
0.4378,-0.01601393
0.438,-0.01894545
0.4382,-0.02071562
0.4384,-0.0203484
0.4386,-0.02176351
0.4388,-0.02355745
0.439,-0.02466251
0.4392,-0.02304541
0.4394,-0.02402665
0.4396,-0.0244308
0.4398,-0.02347622
0.44,-0.02397795
0.4402,-0.02507525
0.4404,-0.02554831
0.4406,-0.02538256
0.4408,-0.02544834
0.441,-0.02684307
0.4412,-0.02694144
0.4414,-0.0261723
0.4416,-0.02661146
0.4418,-0.02686975
0.442,-0.02666909
0.4422,-0.02648341
0.4424,-0.02441395
0.4426,-0.02258137
0.4428,-0.02183447
0.443,-0.0212645
0.4432,-0.02065809
0.4434,-0.02215692
0.4436,-0.02310324
0.4438,-0.0225119
0.444,-0.0221157
0.4442,-0.0206107
0.4444,-0.01847651
0.4446,-0.0168052
0.4448,-0.01442224
0.445,-0.01017383
0.4452,-0.007258031
0.4454,-0.005020616
0.4456,-0.002548117
0.4458,-0.0009119567
0.446,0.0004229638
0.4462,0.001548606
0.4464,0.002264038
0.4466,0.004558824
0.4468,0.006433957
0.447,0.009146495
0.4472,0.01086802
0.4474,0.01277584
0.4476,0.01516894
0.4478,0.01808019
0.448,0.02018776
0.4482,0.01984868
0.4484,0.02093329
0.4486,0.02249909
0.4488,0.02184795
0.449,0.022787
0.4492,0.02373664
0.4494,0.02242261
0.4496,0.02251576
0.4498,0.02504392
0.45,0.02588957
0.4502,0.0271018
0.4504,0.02775896
0.4506,0.02653292
0.4508,0.0262925
0.451,0.02654137
0.4512,0.02650006
0.4514,0.0267393
0.4516,0.02555053
0.4518,0.02490323
0.452,0.02398439
0.4522,0.02407563
0.4524,0.02540362
0.4526,0.02550942
0.4528,0.02467011
0.453,0.02535166
0.4532,0.02406277
0.4534,0.02218919
0.4536,0.0202774
0.4538,0.0184758
0.454,0.01605673
0.4542,0.0148594
0.4544,0.01322974
0.4546,0.01288895
0.4548,0.01153257
0.455,0.01040553
0.4552,0.008785148
0.4554,0.005885213
0.4556,0.004010208
0.4558,0.00333978
0.456,0.001523008
0.4562,-0.0006735798
0.4564,-0.00511459
0.4566,-0.006834595
0.4568,-0.007785983
0.457,-0.007947586
0.4572,-0.009657936
0.4574,-0.01293777
0.4576,-0.01571558
0.4578,-0.01728461
0.458,-0.01903552
0.4582,-0.02013191
0.4584,-0.02050237
0.4586,-0.02143488
0.4588,-0.02091792
0.459,-0.02143873
0.4592,-0.02323611
0.4594,-0.02398193
0.4596,-0.02534472
0.4598,-0.02738825
0.46,-0.02822329
0.4602,-0.02836255
0.4604,-0.02881575
0.4606,-0.02897625
0.4608,-0.02915762
0.461,-0.02974348
0.4612,-0.02859832
0.4614,-0.02759894
0.4616,-0.02663043
0.4618,-0.02592743
0.462,-0.02501373
0.4622,-0.0239674
0.4624,-0.02260122
0.4626,-0.02123263
0.4628,-0.02244055
0.463,-0.02439268
0.4632,-0.02373181
0.4634,-0.02231233
0.4636,-0.01992658
0.4638,-0.01776079
0.464,-0.01662202
0.4642,-0.01480804
0.4644,-0.01342212
0.4646,-0.01029086
0.4648,-0.007741199
0.465,-0.006361259
0.4652,-0.005291394
0.4654,-0.003245107
0.4656,-0.00316748
0.4658,-0.002294124
0.466,-0.001129312
0.4662,-0.0004451736
0.4664,0.002012004
0.4666,0.004287323
0.4668,0.009070368
0.467,0.009926241
0.4672,0.01068707
0.4674,0.01338937
0.4676,0.01576644
0.4678,0.01840018
0.468,0.01900683
0.4682,0.01890759
0.4684,0.0198128
0.4686,0.02039395
0.4688,0.02072923
0.469,0.02247039
0.4692,0.02288397
0.4694,0.02307293
0.4696,0.02348117
0.4698,0.0248692
0.47,0.02655924
0.4702,0.02782946
0.4704,0.02729126
0.4706,0.02699242
0.4708,0.02615362
0.471,0.02653776
0.4712,0.02770249
0.4714,0.02774926
0.4716,0.02769506
0.4718,0.02768636
0.472,0.02768381
0.4722,0.02660205
0.4724,0.02535668
0.4726,0.02290587
0.4728,0.02085223
0.473,0.02023576
0.4732,0.01871991
0.4734,0.01889536
0.4736,0.01786326
0.4738,0.01524528
0.474,0.01417706
0.4742,0.01378996
0.4744,0.01317685
0.4746,0.01071532
0.4748,0.008978276
0.475,0.00642082
0.4752,0.004008975
0.4754,0.002762144
0.4756,0.001891494
0.4758,-8.113274e-05
0.476,0.0003558782
0.4762,-0.001385934
0.4764,-0.003551206
0.4766,-0.004398765
0.4768,-0.006614697
0.477,-0.00998711
0.4772,-0.01199508
0.4774,-0.01260305
0.4776,-0.01343825
0.4778,-0.01520883
0.478,-0.01777584
0.4782,-0.01922992
0.4784,-0.01957509
0.4786,-0.02146032
0.4788,-0.02215711
0.479,-0.02379069
0.4792,-0.02515071
0.4794,-0.0246107
0.4796,-0.02586999
0.4798,-0.02696253
0.48,-0.02659125
0.4802,-0.0268296
0.4804,-0.0268678
0.4806,-0.02687586
0.4808,-0.02609494
0.481,-0.02526152
0.4812,-0.02771527
0.4814,-0.02667329
0.4816,-0.02515101
0.4818,-0.02500706
0.482,-0.02546081
0.4822,-0.02528042
0.4824,-0.02443688
0.4826,-0.02304838
0.4828,-0.02152333
0.483,-0.01917553
0.4832,-0.01794225
0.4834,-0.01615649
0.4836,-0.01509236
0.4838,-0.0141406
0.484,-0.01166127
0.4842,-0.009444005
0.4844,-0.008138983
0.4846,-0.007195046
0.4848,-0.004887003
0.485,-0.003524535
0.4852,-0.003351719
0.4854,-0.003537296
0.4856,-0.001297985
0.4858,0.00128734
0.486,0.002064507
0.4862,0.004176769
0.4864,0.004873998
0.4866,0.007040243
0.4868,0.008833165
0.487,0.01010637
0.4872,0.01301608
0.4874,0.01489533
0.4876,0.0162963
0.4878,0.01691285
0.488,0.01718989
0.4882,0.0179172
0.4884,0.0183846
0.4886,0.01962373
0.4888,0.02034609
0.489,0.01920159
0.4892,0.01918183
0.4894,0.01955836
0.4896,0.01953747
0.4898,0.02022776
0.49,0.02163047
0.4902,0.02323891
0.4904,0.0239078
0.4906,0.02427666
0.4908,0.02345342
0.491,0.02376145
0.4912,0.02371941
0.4914,0.02368404
0.4916,0.02411469
0.4918,0.02425108
0.492,0.02421359
0.4922,0.02477651
0.4924,0.02472316
0.4926,0.02348528
0.4928,0.02200018
0.493,0.02075194
0.4932,0.02008739
0.4934,0.01934385
0.4936,0.01935276
0.4938,0.01800624
0.494,0.01628268
0.4942,0.01488679
0.4944,0.01269521
0.4946,0.01156887
0.4948,0.01051619
0.495,0.008989476
0.4952,0.006251548
0.4954,0.003786995
0.4956,0.002641349
0.4958,0.002063842
0.496,-0.0005046688
0.4962,-0.002886759
0.4964,-0.004046146
0.4966,-0.005202002
0.4968,-0.005821225
0.497,-0.006194844
0.4972,-0.007207683
0.4974,-0.009456238
0.4976,-0.0107735
0.4978,-0.01266203
0.498,-0.01578927
0.4982,-0.01721279
0.4984,-0.01909375
0.4986,-0.02078437
0.4988,-0.02088009
0.499,-0.02260186
0.4992,-0.02490505
0.4994,-0.02578641
0.4996,-0.02564881
0.4998,-0.02470577
0.5,-0.02503827
0.5002,-0.02560886
0.5004,-0.02690734
0.5006,-0.02671005
0.5008,-0.02749594
0.501,-0.02863636
0.5012,-0.02855826
0.5014,-0.03000987
0.5016,-0.0316074
0.5018,-0.03162107
0.502,-0.03159667
0.5022,-0.03202644
0.5024,-0.0311127
0.5026,-0.02738948
0.5028,-0.02472742
0.503,-0.02341344
0.5032,-0.02217625
0.5034,-0.02023737
0.5036,-0.01840865
0.5038,-0.01683914
0.504,-0.01718002
0.5042,-0.0165236
0.5044,-0.01479401
0.5046,-0.01147752
0.5048,-0.007443538
0.505,-0.006158122
0.5052,-0.005406334
0.5054,-0.004667585
0.5056,-0.001518908
0.5058,0.001768391
0.506,0.003845431
0.5062,0.006453917
0.5064,0.008422322
0.5066,0.01051468
0.5068,0.01149229
0.507,0.01173056
0.5072,0.01616316
0.5074,0.02009235
0.5076,0.02170481
0.5078,0.02287508
0.508,0.02379526
0.5082,0.02555092
0.5084,0.02669961
0.5086,0.02575766
0.5088,0.02673556
0.509,0.02836824
0.5092,0.0288258
0.5094,0.02884573
0.5096,0.02933121
0.5098,0.03048202
0.51,0.03053453
0.5102,0.02985365
0.5104,0.02984577
0.5106,0.02909588
0.5108,0.02858813
0.511,0.02848455
0.5112,0.02890121
0.5114,0.02852483
0.5116,0.02603721
0.5118,0.02442687
0.512,0.02278007
0.5122,0.02194154
0.5124,0.02175474
0.5126,0.02074049
0.5128,0.0189326
0.513,0.01592048
0.5132,0.01543778
0.5134,0.01597751
0.5136,0.01447622
0.5138,0.01122505
0.514,0.008188563
0.5142,0.00597736
0.5144,0.003856002
0.5146,0.002469463
0.5148,0.001172298
0.515,0.0001200848
0.5152,-0.001094628
0.5154,-0.0005539631
0.5156,-0.000468366
0.5158,-0.001388988
0.516,-0.003003194
0.5162,-0.005582592
0.5164,-0.008305266
0.5166,-0.008857625
0.5168,-0.01010071
0.517,-0.01118932
0.5172,-0.013558
0.5174,-0.01513033
0.5176,-0.01723699
0.5178,-0.01978777
0.518,-0.02101441
0.5182,-0.01980015
0.5184,-0.01995563
0.5186,-0.02114316
0.5188,-0.02088845
0.519,-0.01995772
0.5192,-0.01992412
0.5194,-0.02025252
0.5196,-0.02172331
0.5198,-0.02290888
0.52,-0.02278148
0.5202,-0.02518081
0.5204,-0.02594239
0.5206,-0.02596581
0.5208,-0.02646832
0.521,-0.0256622
0.5212,-0.02507354
0.5214,-0.02489744
0.5216,-0.02411787
0.5218,-0.02296322
0.522,-0.02198103
0.5222,-0.0222064
0.5224,-0.02105485
0.5226,-0.01911165
0.5228,-0.01765425
0.523,-0.01625039
0.5232,-0.01629486
0.5234,-0.01568131
0.5236,-0.01523028
0.5238,-0.01316575
0.524,-0.01066132
0.5242,-0.009069395
0.5244,-0.007800797
0.5246,-0.00623907
0.5248,-0.006369175
0.525,-0.004600426
0.5252,-0.001247475
0.5254,-0.0006640001
0.5256,-0.0001457617
0.5258,0.0003686774
0.526,0.001704935
0.5262,0.003883613
0.5264,0.004061358
0.5266,0.003229715
0.5268,0.003004496
0.527,0.002461778
0.5272,0.003139689
0.5274,0.004748835
0.5276,0.005683135
0.5278,0.008765951
0.528,0.0119921
0.5282,0.01384564
0.5284,0.01509517
0.5286,0.01886228
0.5288,0.02159589
0.529,0.02194104
0.5292,0.02273617
0.5294,0.02469023
0.5296,0.02491518
0.5298,0.02325919
0.53,0.02206919
0.5302,0.02265157
0.5304,0.02358058
0.5306,0.02398463
0.5308,0.02360881
0.531,0.02471039
0.5312,0.02717044
0.5314,0.02829005
0.5316,0.02885025
0.5318,0.0291113
0.532,0.03038604
0.5322,0.0313925
0.5324,0.03210285
0.5326,0.03053434
0.5328,0.02954373
0.533,0.02741765
0.5332,0.0262451
0.5334,0.02469346
0.5336,0.02214517
0.5338,0.02004591
0.534,0.01643562
0.5342,0.01304079
0.5344,0.01090752
0.5346,0.008388218
0.5348,0.007487123
0.535,0.00574994
0.5352,0.004246239
0.5354,0.003689151
0.5356,0.002056554
0.5358,-0.001176965
0.536,-0.004431463
0.5362,-0.00690232
0.5364,-0.008538852
0.5366,-0.009830656
0.5368,-0.009911948
0.537,-0.01052174
0.5372,-0.01054
0.5374,-0.01263553
0.5376,-0.01405218
0.5378,-0.01487486
0.538,-0.01496474
0.5382,-0.01502869
0.5384,-0.01808054
0.5386,-0.0187473
0.5388,-0.01895316
0.539,-0.0193543
0.5392,-0.01806364
0.5394,-0.01651509
0.5396,-0.01662837
0.5398,-0.01807198
0.54,-0.0200073
0.5402,-0.01944534
0.5404,-0.02053642
0.5406,-0.021896
0.5408,-0.02261274
0.541,-0.02414045
0.5412,-0.02524304
0.5414,-0.02621385
0.5416,-0.02552247
0.5418,-0.02568771
0.542,-0.0250062
0.5422,-0.02377238
0.5424,-0.02311685
0.5426,-0.02352244
0.5428,-0.02255223
0.543,-0.02022504
0.5432,-0.01905148
0.5434,-0.01746459
0.5436,-0.01677545
0.5438,-0.01472109
0.544,-0.01216102
0.5442,-0.01064615
0.5444,-0.008130983
0.5446,-0.006431873
0.5448,-0.00560651
0.545,-0.00379438
0.5452,-0.002880906
0.5454,-0.001777546
0.5456,-0.001503277
0.5458,-0.0005400593
0.546,0.001774559
0.5462,0.002708729
0.5464,0.004472007
0.5466,0.007341011
0.5468,0.008697171
0.547,0.008368118
0.5472,0.01134796
0.5474,0.01320773
0.5476,0.01379014
0.5478,0.01549774
0.548,0.01669357
0.5482,0.01813092
0.5484,0.02057732
0.5486,0.01990126
0.5488,0.01915771
0.549,0.01724949
0.5492,0.01582353
0.5494,0.01537262
0.5496,0.01459628
0.5498,0.01613309
0.55,0.01758295
0.5502,0.01844968
0.5504,0.02027714
0.5506,0.02125944
0.5508,0.02169377
0.551,0.02258631
0.5512,0.02215697
0.5514,0.021234
0.5516,0.02087977
0.5518,0.02316585
0.552,0.02450375
0.5522,0.02255301
0.5524,0.0215703
0.5526,0.02290291
0.5528,0.02215458
0.553,0.02154204
0.5532,0.02138877
0.5534,0.02108481
0.5536,0.01929551
0.5538,0.01860185
0.554,0.01653173
0.5542,0.01422477
0.5544,0.01232676
0.5546,0.009693849
0.5548,0.006726459
0.555,0.007179341
0.5552,0.007681588
0.5554,0.006940834
0.5556,0.004574676
0.5558,0.0006445108
0.556,-0.001342836
0.5562,-0.004160106
0.5564,-0.004873716
0.5566,-0.005115693
0.5568,-0.007775972
0.557,-0.007976293
0.5572,-0.008613677
0.5574,-0.01218462
0.5576,-0.01541985
0.5578,-0.01717986
0.558,-0.0182976
0.5582,-0.01943934
0.5584,-0.01966247
0.5586,-0.02031442
0.5588,-0.02023416
0.559,-0.02202553
0.5592,-0.02459112
0.5594,-0.02545735
0.5596,-0.02588363
0.5598,-0.02675196
0.56,-0.02804154
0.5602,-0.02674193
0.5604,-0.02627714
0.5606,-0.0259524
0.5608,-0.02570327
0.561,-0.02524565
0.5612,-0.02654864
0.5614,-0.02671434
0.5616,-0.02616617
0.5618,-0.0253884
0.562,-0.02508654
0.5622,-0.02560794
0.5624,-0.02466438
0.5626,-0.02322443
0.5628,-0.02094884
0.563,-0.01956694
0.5632,-0.01823781
0.5634,-0.01719799
0.5636,-0.01572786
0.5638,-0.01293993
0.564,-0.01055825
0.5642,-0.008491523
0.5644,-0.0074307
0.5646,-0.006125058
0.5648,-0.004086114
0.565,-0.002428727
0.5652,-0.0006598674
0.5654,0.001096227
0.5656,0.002704169
0.5658,0.003569363
0.566,0.004914143
0.5662,0.006245513
0.5664,0.006623982
0.5666,0.009676209
0.5668,0.01318375
0.567,0.0149512
0.5672,0.01513345
0.5674,0.01574997
0.5676,0.01724603
0.5678,0.01875715
0.568,0.02011482
0.5682,0.02155774
0.5684,0.02217522
0.5686,0.0234283
0.5688,0.02610363
0.569,0.02675058
0.5692,0.02531755
0.5694,0.0255294
0.5696,0.02614095
0.5698,0.02611711
0.57,0.02540251
0.5702,0.02546016
0.5704,0.02539061
0.5706,0.02342279
0.5708,0.0217796
0.571,0.02047563
0.5712,0.01999627
0.5714,0.01984205
0.5716,0.01796212
0.5718,0.01686568
0.572,0.01817576
0.5722,0.01844111
0.5724,0.01601864
0.5726,0.01437499
0.5728,0.01391557
0.573,0.01346341
0.5732,0.0130239
0.5734,0.01229446
0.5736,0.01047353
0.5738,0.009108359
0.574,0.008269896
0.5742,0.006644411
0.5744,0.005105209
0.5746,0.003402713
0.5748,0.002488184
0.575,0.002170919
0.5752,0.001843325
0.5754,0.002415741
0.5756,0.001793205
0.5758,0.0001690979
0.576,-0.001222918
0.5762,-0.003905943
0.5764,-0.005003235
0.5766,-0.003939449
0.5768,-0.005106532
0.577,-0.007845772
0.5772,-0.009780556
0.5774,-0.01108103
0.5776,-0.01263382
0.5778,-0.01368236
0.578,-0.01461978
0.5782,-0.01575472
0.5784,-0.01797198
0.5786,-0.02024662
0.5788,-0.02122322
0.579,-0.02242219
0.5792,-0.02339259
0.5794,-0.02223196
0.5796,-0.02182067
0.5798,-0.02236924
0.58,-0.023284
0.5802,-0.02532746
0.5804,-0.0262462
0.5806,-0.02632164
0.5808,-0.0257707
0.581,-0.02584048
0.5812,-0.02594788
0.5814,-0.0248136
0.5816,-0.02303217
0.5818,-0.02180202
0.582,-0.01938471
0.5822,-0.02018613
0.5824,-0.01930555
0.5826,-0.01823041
0.5828,-0.01694694
0.583,-0.01450343
0.5832,-0.01302628
0.5834,-0.01246542
0.5836,-0.01274334
0.5838,-0.01263488
0.584,-0.01173951
0.5842,-0.008988856
0.5844,-0.008161218
0.5846,-0.009162738
0.5848,-0.008938156
0.585,-0.006972714
0.5852,-0.005210228
0.5854,-0.003077055
0.5856,-0.002646877
0.5858,-0.001600086
0.586,0.001450209
0.5862,0.002848879
0.5864,0.004069489
0.5866,0.006065398
0.5868,0.007418434
0.587,0.007348122
0.5872,0.00853415
0.5874,0.01092519
0.5876,0.01119289
0.5878,0.01185742
0.588,0.01153059
0.5882,0.01188303
0.5884,0.01318329
0.5886,0.01423206
0.5888,0.01584676
0.589,0.01563841
0.5892,0.01576013
0.5894,0.01776369
0.5896,0.01850298
0.5898,0.01834038
0.59,0.01858603
0.5902,0.01979258
0.5904,0.02152012
0.5906,0.02193004
0.5908,0.02194627
0.591,0.02112001
0.5912,0.02111206
0.5914,0.02150966
0.5916,0.02141719
0.5918,0.02330791
0.592,0.02380216
0.5922,0.02311658
0.5924,0.02206114
0.5926,0.02076915
0.5928,0.01852213
0.593,0.01705552
0.5932,0.01640059
0.5934,0.01597033
0.5936,0.01446583
0.5938,0.01190353
0.594,0.01068809
0.5942,0.01046848
0.5944,0.00986327
0.5946,0.009245991
0.5948,0.007995668
0.595,0.006795526
0.5952,0.005045191
0.5954,0.003370697
0.5956,0.002969416
0.5958,0.001677396
0.596,0.001537051
0.5962,0.001959214
0.5964,0.0002228789
0.5966,-0.002102101
0.5968,-0.002807314
0.597,-0.004513537
0.5972,-0.006088087
0.5974,-0.007351078
0.5976,-0.01020519
0.5978,-0.01359643
0.598,-0.01470501
0.5982,-0.01533935
0.5984,-0.01580897
0.5986,-0.01736387
0.5988,-0.01823037
0.599,-0.01855714
0.5992,-0.02068282
0.5994,-0.02244709
0.5996,-0.02424552
0.5998,-0.0258615
0.6,-0.02615868
0.6002,-0.02629129
0.6004,-0.02565231
0.6006,-0.02498498
0.6008,-0.02455043
0.601,-0.02375726
0.6012,-0.02420416
0.6014,-0.02594233
0.6016,-0.02597531
0.6018,-0.02482039
0.602,-0.02461996
0.6022,-0.02555244
0.6024,-0.02445046
0.6026,-0.02211046
0.6028,-0.02002576
0.603,-0.0184241
0.6032,-0.01810103
0.6034,-0.01625867
0.6036,-0.01496805
0.6038,-0.01513409
0.604,-0.01328535
0.6042,-0.01074044
0.6044,-0.009007499
0.6046,-0.007680923
0.6048,-0.005810342
0.605,-0.004151477
0.6052,-0.003468639
0.6054,-0.001839718
0.6056,-0.000853678
0.6058,0.0008852344
0.606,0.002684299
0.6062,0.005108747
0.6064,0.007215419
0.6066,0.007509232
0.6068,0.008438325
0.607,0.01119043
0.6072,0.0135496
0.6074,0.01643288
0.6076,0.01787076
0.6078,0.01920104
0.608,0.02103095
0.6082,0.02094005
0.6084,0.02023255
0.6086,0.02046019
0.6088,0.02051989
0.609,0.0220793
0.6092,0.02274948
0.6094,0.02356907
0.6096,0.02453705
0.6098,0.02576382
0.61,0.02692302
0.6102,0.02931875
0.6104,0.03024909
0.6106,0.03084783
0.6108,0.03138712
0.611,0.02961718
0.6112,0.02939771
0.6114,0.02936593
0.6116,0.0284027
0.6118,0.0294544
0.612,0.02994031
0.6122,0.02858087
0.6124,0.0261873
0.6126,0.02440095
0.6128,0.02393942
0.613,0.02271129
0.6132,0.0210381
0.6134,0.02003826
0.6136,0.01742589
0.6138,0.01564168
0.614,0.01465684
0.6142,0.01417537
0.6144,0.01471352
0.6146,0.01346424
0.6148,0.01168554
0.615,0.009457593
0.6152,0.007843555
0.6154,0.006893869
0.6156,0.006989524
0.6158,0.00528845
0.616,0.003312093
0.6162,0.0002426842
0.6164,-0.003506855
0.6166,-0.005855888
0.6168,-0.006578553
0.617,-0.009000144
0.6172,-0.0122111
0.6174,-0.01210306
0.6176,-0.01349354
0.6178,-0.01501625
0.618,-0.01559302
0.6182,-0.01640813
0.6184,-0.01643125
0.6186,-0.01673109
0.6188,-0.01935789
0.619,-0.02099491
0.6192,-0.02201535
0.6194,-0.02254544
0.6196,-0.02281255
0.6198,-0.02404065
0.62,-0.02590989
0.6202,-0.02672007
0.6204,-0.02576777
0.6206,-0.02722457
0.6208,-0.02708836
0.621,-0.02599223
0.6212,-0.02557235
0.6214,-0.02442263
0.6216,-0.02369438
0.6218,-0.02316432
0.622,-0.02160129
0.6222,-0.02079636
0.6224,-0.02026437
0.6226,-0.02137175
0.6228,-0.02175425
0.623,-0.02163637
0.6232,-0.02176918
0.6234,-0.02269194
0.6236,-0.02355724
0.6238,-0.02393993
0.624,-0.02102391
0.6242,-0.0177758
0.6244,-0.016217
0.6246,-0.01576165
0.6248,-0.01551161
0.625,-0.01448701
0.6252,-0.0133442
0.6254,-0.01321397
0.6256,-0.01162773
0.6258,-0.009467982
0.626,-0.006925895
0.6262,-0.005877933
0.6264,-0.00462601
0.6266,-0.003982938
0.6268,-0.00293954
0.627,-0.002000751
0.6272,-0.0008160604
0.6274,0.0009875548
0.6276,0.002152389
0.6278,0.004302472
0.628,0.006269936
0.6282,0.008663893
0.6284,0.01137103
0.6286,0.01243273
0.6288,0.0128343
0.629,0.01434872
0.6292,0.01560193
0.6294,0.01792122
0.6296,0.01876279
0.6298,0.01965765
0.63,0.02055412
0.6302,0.01959437
0.6304,0.01988251
0.6306,0.02013177
0.6308,0.02019965
0.631,0.02229222
0.6312,0.02375197
0.6314,0.02442011
0.6316,0.02492041
0.6318,0.02490745
0.632,0.02650901
0.6322,0.02731143
0.6324,0.02921945
0.6326,0.0297025
0.6328,0.02821061
0.633,0.02632741
0.6332,0.02480589
0.6334,0.02457108
0.6336,0.024307
0.6338,0.02264382
0.634,0.02002979
0.6342,0.01847542
0.6344,0.01672522
0.6346,0.01529726
0.6348,0.01257666
0.635,0.01005287
0.6352,0.008953662
0.6354,0.008738027
0.6356,0.007709303
0.6358,0.006494931
0.636,0.005699963
0.6362,0.003318422
0.6364,0.001618997
0.6366,-0.0007115512
0.6368,-0.002176169
0.637,-0.004013622
0.6372,-0.008396619
0.6374,-0.01189471
0.6376,-0.01402649
0.6378,-0.01604292
0.638,-0.01737517
0.6382,-0.01901054
0.6384,-0.02158082
0.6386,-0.02270388
0.6388,-0.02392019
0.639,-0.02560122
0.6392,-0.02659602
0.6394,-0.02628108
0.6396,-0.02579966
0.6398,-0.02399094
0.64,-0.02395689
0.6402,-0.02147535
0.6404,-0.01977389
0.6406,-0.01893006
0.6408,-0.0176458
0.641,-0.01751147
0.6412,-0.01717026
0.6414,-0.01726371
0.6416,-0.01794061
0.6418,-0.01629618
0.642,-0.01564972
0.6422,-0.0173828
0.6424,-0.01646222
0.6426,-0.01662721
0.6428,-0.01705969
0.643,-0.01539276
0.6432,-0.01237403
0.6434,-0.01052977
0.6436,-0.008902599
0.6438,-0.006748007
0.644,-0.004583012
0.6442,-0.002412694
0.6444,-0.0008165558
0.6446,0.0008991804
0.6448,0.002049221
0.645,0.001277677
0.6452,0.002567597
0.6454,0.004876495
0.6456,0.005636399
0.6458,0.007094609
0.646,0.01033158
0.6462,0.01085912
0.6464,0.009946059
0.6466,0.009045478
0.6468,0.009052222
0.647,0.008996205
0.6472,0.008195774
0.6474,0.008145476
0.6476,0.007856824
0.6478,0.007266764
0.648,0.007906158
0.6482,0.006579512
0.6484,0.004958319
0.6486,0.004631397
0.6488,0.004274648
0.649,0.004541454
0.6492,0.003851367
0.6494,0.003286654
0.6496,0.004278349
0.6498,0.004590779
0.65,0.004292951
0.6502,0.003800838
0.6504,0.003205451
0.6506,0.003251982
0.6508,0.005173525
0.651,0.004768008
0.6512,0.006338851
0.6514,0.008038836
0.6516,0.008879105
0.6518,0.01281806
0.652,0.01526331
0.6522,0.01652041
0.6524,0.01909074
0.6526,0.02095063
0.6528,0.02025946
0.653,0.01831405
0.6532,0.0190117
0.6534,0.01875314
0.6536,0.01775979
0.6538,0.01732971
0.654,0.01538152
0.6542,0.01372726
0.6544,0.01303574
0.6546,0.01260823
0.6548,0.01275433
0.655,0.01347835
0.6552,0.01271832
0.6554,0.01259718
0.6556,0.01307336
0.6558,0.01411054
0.656,0.01339423
0.6562,0.01213163
0.6564,0.009645358
0.6566,0.008013298
0.6568,0.005875
0.657,0.003810589
0.6572,0.002556563
0.6574,-0.0007791023
0.6576,-0.003301759
0.6578,-0.006694361
0.658,-0.01152413
0.6582,-0.01410421
0.6584,-0.0172278
0.6586,-0.01951451
0.6588,-0.02124482
0.659,-0.02218993
0.6592,-0.0238345
0.6594,-0.02443965
0.6596,-0.02378809
0.6598,-0.02369655
0.66,-0.02320213
0.6602,-0.02200933
0.6604,-0.02147898
0.6606,-0.02001543
0.6608,-0.02022084
0.661,-0.01914256
0.6612,-0.01780271
0.6614,-0.01613937
0.6616,-0.01621448
0.6618,-0.0161245
0.662,-0.01416769
0.6622,-0.01306187
0.6624,-0.01139365
0.6626,-0.008175138
0.6628,-0.007841365
0.663,-0.006222065
0.6632,-0.005438352
0.6634,-0.00333254
0.6636,0.0002088548
0.6638,0.003299
0.664,0.005910304
0.6642,0.008059028
0.6644,0.008857892
0.6646,0.009195205
0.6648,0.009858161
0.665,0.009264196
0.6652,0.007715481
0.6654,0.005989135
0.6656,0.00373381
0.6658,0.0008359404
0.666,-0.0003520375
0.6662,-0.0001180002
0.6664,-8.455272e-05
0.6666,-0.001505328
0.6668,-0.002386567
0.667,-0.0006846774
0.6672,0.001629108
0.6674,0.004183853
0.6676,0.006220507
0.6678,0.007694818
0.668,0.009538954
0.6682,0.01073223
0.6684,0.01256522
0.6686,0.01432301
0.6688,0.01576802
0.669,0.01557013
0.6692,0.01569545
0.6694,0.01578663
0.6696,0.01550316
0.6698,0.01456264
0.67,0.0136944
0.6702,0.01357657
0.6704,0.01181315
0.6706,0.008358446
0.6708,0.006644735
0.671,0.006857222
0.6712,0.00656561
0.6714,0.005045625
0.6716,0.003398575
0.6718,0.003838388
0.672,0.00333763
0.6722,0.003563114
0.6724,0.002455445
0.6726,0.004144429
0.6728,0.007422607
0.673,0.01058243
0.6732,0.0130183
0.6734,0.01485472
0.6736,0.01715229
0.6738,0.01949917
0.674,0.02099125
0.6742,0.02079624
0.6744,0.01957019
0.6746,0.01925571
0.6748,0.02086609
0.675,0.02138117
0.6752,0.02173217
0.6754,0.02227598
0.6756,0.02402877
0.6758,0.02406647
0.676,0.02352668
0.6762,0.02333885
0.6764,0.02414779
0.6766,0.02229485
0.6768,0.02017847
0.677,0.01742876
0.6772,0.01428688
0.6774,0.01127251
0.6776,0.008202011
0.6778,0.007348601
0.678,0.006779912
0.6782,0.006452018
0.6784,0.004887613
0.6786,0.002664315
0.6788,-0.001292665
0.679,-0.005490437
0.6792,-0.01071682
0.6794,-0.01580831
0.6796,-0.02072437
0.6798,-0.02531
0.68,-0.02998842
0.6802,-0.03626657
0.6804,-0.04088834
0.6806,-0.04249938
0.6808,-0.04465459
0.681,-0.04653173
0.6812,-0.04894027
0.6814,-0.05275664
0.6816,-0.05552159
0.6818,-0.05785202
0.682,-0.05878697
0.6822,-0.05910622
0.6824,-0.05909128
0.6826,-0.05863662
0.6828,-0.05760358
0.683,-0.05591094
0.6832,-0.0535909
0.6834,-0.0522464
0.6836,-0.05088993
0.6838,-0.0465163
0.684,-0.04387808
0.6842,-0.04034244
0.6844,-0.03834042
0.6846,-0.03780432
0.6848,-0.03800392
0.685,-0.03723386
0.6852,-0.03538061
0.6854,-0.03297438
0.6856,-0.02870085
0.6858,-0.02405873
0.686,-0.02014072
0.6862,-0.01652178
0.6864,-0.01275126
0.6866,-0.009903998
0.6868,-0.005607732
0.687,-0.001451822
0.6872,0.001358587
0.6874,0.004244588
0.6876,0.004855579
0.6878,0.00713725
0.688,0.01288829
0.6882,0.01743862
0.6884,0.0225338
0.6886,0.02777412
0.6888,0.0333606
0.689,0.03823585
0.6892,0.04203253
0.6894,0.0469175
0.6896,0.05173581
0.6898,0.05547498
0.69,0.05744042
0.6902,0.05894198
0.6904,0.06063577
0.6906,0.06015524
0.6908,0.05870949
0.691,0.05778157
0.6912,0.05693787
0.6914,0.05510478
0.6916,0.05437727
0.6918,0.05173858
0.692,0.04970276
0.6922,0.04941306
0.6924,0.04847584
0.6926,0.04516846
0.6928,0.04076778
0.693,0.03622814
0.6932,0.03118772
0.6934,0.02600833
0.6936,0.02206602
0.6938,0.01928144
0.694,0.01442
0.6942,0.009006553
0.6944,0.004448181
0.6946,-0.0003212429
0.6948,-0.003945051
0.695,-0.006446218
0.6952,-0.009244734
0.6954,-0.01234945
0.6956,-0.01645837
0.6958,-0.02090113
0.696,-0.02583484
0.6962,-0.02961627
0.6964,-0.0327323
0.6966,-0.0357033
0.6968,-0.03741714
0.697,-0.0403145
0.6972,-0.04308679
0.6974,-0.04602893
0.6976,-0.04867733
0.6978,-0.05186756
0.698,-0.05690249
0.6982,-0.06066572
0.6984,-0.0615361
0.6986,-0.05855961
0.6988,-0.05399808
0.699,-0.04935828
0.6992,-0.04298154
0.6994,-0.03813846
0.6996,-0.03320602
0.6998,-0.03079512
0.7,-0.02938488
0.7002,-0.0276278
0.7004,-0.02439222
0.7006,-0.02183094
0.7008,-0.01845374
0.701,-0.01716143
0.7012,-0.01741993
0.7014,-0.01802534
0.7016,-0.01774624
0.7018,-0.01906547
0.702,-0.02077292
0.7022,-0.02124729
0.7024,-0.02032788
0.7026,-0.01913202
0.7028,-0.01724288
0.703,-0.01419603
0.7032,-0.01128289
0.7034,-0.01129161
0.7036,-0.009609851
0.7038,-0.006421618
0.704,-0.003604302
0.7042,-0.0008617092
0.7044,0.0006419642
0.7046,0.004586383
0.7048,0.00874919
0.705,0.01038708
0.7052,0.01315659
0.7054,0.01433912
0.7056,0.01517155
0.7058,0.0163682
0.706,0.01769716
0.7062,0.01974682
0.7064,0.02150052
0.7066,0.02254876
0.7068,0.02443429
0.707,0.02509421
0.7072,0.02569804
0.7074,0.02666127
0.7076,0.02725699
0.7078,0.02826552
0.708,0.02936586
0.7082,0.03009804
0.7084,0.03003217
0.7086,0.03154029
0.7088,0.0324314
0.709,0.03345994
0.7092,0.03360398
0.7094,0.03404059
0.7096,0.03441008
0.7098,0.03422376
0.71,0.03426325
0.7102,0.03507169
0.7104,0.03449144
0.7106,0.03451719
0.7108,0.03627022
0.711,0.03641184
0.7112,0.03624835
0.7114,0.03657129
0.7116,0.03862279
0.7118,0.04121847
0.712,0.04404433
0.7122,0.04496348
0.7124,0.04203302
0.7126,0.04038464
0.7128,0.03990521
0.713,0.03928053
0.7132,0.03852116
0.7134,0.03691068
0.7136,0.03625941
0.7138,0.03424644
0.714,0.0299178
0.7142,0.02696597
0.7144,0.02467176
0.7146,0.02192619
0.7148,0.01771019
0.715,0.01474614
0.7152,0.009895668
0.7154,0.006623482
0.7156,0.002384195
0.7158,-0.003884983
0.716,-0.007469756
0.7162,-0.01344271
0.7164,-0.01941814
0.7166,-0.02329543
0.7168,-0.02757772
0.717,-0.03255349
0.7172,-0.03731073
0.7174,-0.04157662
0.7176,-0.04408256
0.7178,-0.04601206
0.718,-0.04720471
0.7182,-0.04823951
0.7184,-0.04933911
0.7186,-0.04933336
0.7188,-0.04958206
0.719,-0.04782933
0.7192,-0.04462905
0.7194,-0.04060057
0.7196,-0.03763278
0.7198,-0.03562597
0.72,-0.03351308
0.7202,-0.03150238
0.7204,-0.02935025
0.7206,-0.02726356
0.7208,-0.0266721
0.721,-0.02725096
0.7212,-0.02628895
0.7214,-0.02554966
0.7216,-0.02491412
0.7218,-0.0235902
0.722,-0.02202902
0.7222,-0.02170018
0.7224,-0.02028464
0.7226,-0.01738229
0.7228,-0.01502457
0.723,-0.0137621
0.7232,-0.01259088
0.7234,-0.01062986
0.7236,-0.008470576
0.7238,-0.004172888
0.724,-0.004031476
0.7242,-0.002506344
0.7244,-0.001268955
0.7246,-0.002443087
0.7248,-0.003388624
0.725,-0.002601588
0.7252,-0.001391548
0.7254,-0.003191174
0.7256,-0.006066396
0.7258,-0.007429266
0.726,-0.007116009
0.7262,-0.00527802
0.7264,-0.003114951
0.7266,0.001816303
0.7268,0.004870871
0.727,0.007377412
0.7272,0.01124973
0.7274,0.01524545
0.7276,0.01890309
0.7278,0.02179119
0.728,0.02460723
0.7282,0.02775464
0.7284,0.03076493
0.7286,0.03265416
0.7288,0.03394962
0.729,0.03420199
0.7292,0.0337132
0.7294,0.03233231
0.7296,0.03113782
0.7298,0.02954858
0.73,0.02853725
0.7302,0.02881527
0.7304,0.03043778
0.7306,0.03148245
0.7308,0.0326965
0.731,0.03450137
0.7312,0.03351396
0.7314,0.03257556
0.7316,0.03251227
0.7318,0.03175711
0.732,0.03107493
0.7322,0.02979358
0.7324,0.02839241
0.7326,0.0264154
0.7328,0.02365837
0.733,0.0208592
0.7332,0.01772758
0.7334,0.01658471
0.7336,0.01539781
0.7338,0.01333482
0.734,0.01060981
0.7342,0.00738881
0.7344,0.004509514
0.7346,0.002231395
0.7348,3.089503e-07
0.735,-0.004574182
0.7352,-0.008728337
0.7354,-0.01176249
0.7356,-0.01426967
0.7358,-0.01641098
0.736,-0.01765827
0.7362,-0.01705492
0.7364,-0.01590471
0.7366,-0.01376072
0.7368,-0.01368149
0.737,-0.01557478
0.7372,-0.01465075
0.7374,-0.01417239
0.7376,-0.0130758
0.7378,-0.01333529
0.738,-0.01380996
0.7382,-0.01444217
0.7384,-0.01701538
0.7386,-0.01915077
0.7388,-0.01987977
0.739,-0.01837957
0.7392,-0.01990557
0.7394,-0.02084266
0.7396,-0.02321458
0.7398,-0.02383551
0.74,-0.02528601
0.7402,-0.02714964
0.7404,-0.0273563
0.7406,-0.02810082
0.7408,-0.02667997
0.741,-0.02561745
0.7412,-0.02608177
0.7414,-0.02626386
0.7416,-0.0252562
0.7418,-0.0261191
0.742,-0.02669344
0.7422,-0.02570901
0.7424,-0.02440524
0.7426,-0.02421656
0.7428,-0.0233448
0.743,-0.02146174
0.7432,-0.01912676
0.7434,-0.01652998
0.7436,-0.0144534
0.7438,-0.0123384
0.744,-0.009943056
0.7442,-0.007832527
0.7444,-0.006059162
0.7446,-0.005761599
0.7448,-0.005779222
0.745,-0.005445941
0.7452,-0.004457673
0.7454,-0.004220817
0.7456,-0.002825526
0.7458,-0.001117189
0.746,0.002027584
0.7462,0.004836491
0.7464,0.007635431
0.7466,0.009458768
0.7468,0.009926784
0.747,0.01217838
0.7472,0.0152989
0.7474,0.01815807
0.7476,0.01900086
0.7478,0.02260488
0.748,0.02558117
0.7482,0.02741765
0.7484,0.0281013
0.7486,0.02914963
0.7488,0.03001419
0.749,0.03028908
0.7492,0.03030927
0.7494,0.02943965
0.7496,0.02789107
0.7498,0.02840442
0.75,0.0293992
0.7502,0.03002437
0.7504,0.03028963
0.7506,0.02868405
0.7508,0.02923572
0.751,0.02949797
0.7512,0.02813091
0.7514,0.02825711
0.7516,0.0271765
0.7518,0.02630337
0.752,0.02640007
0.7522,0.02456691
0.7524,0.02188989
0.7526,0.01921776
0.7528,0.01598959
0.753,0.01363814
0.7532,0.01182461
0.7534,0.009989323
0.7536,0.008714786
0.7538,0.006192266
0.754,0.003879897
0.7542,0.001633196
0.7544,-0.001677231
0.7546,-0.003579187
0.7548,-0.003216327
0.755,-0.004365798
0.7552,-0.005426977
0.7554,-0.005167386
0.7556,-0.004379263
0.7558,-0.006160168
0.756,-0.006850628
0.7562,-0.007937714
0.7564,-0.008591074
0.7566,-0.008568753
0.7568,-0.009841152
0.757,-0.01197488
0.7572,-0.01359895
0.7574,-0.01500922
0.7576,-0.01766473
0.7578,-0.02011008
0.758,-0.02229775
0.7582,-0.02149438
0.7584,-0.02109753
0.7586,-0.02150499
0.7588,-0.02118899
0.759,-0.02081386
0.7592,-0.02251424
0.7594,-0.02366186
0.7596,-0.02228344
0.7598,-0.02380558
0.76,-0.02328854
0.7602,-0.02346875
0.7604,-0.02398808
0.7606,-0.02413146
0.7608,-0.02259765
0.761,-0.02199171
0.7612,-0.02371156
0.7614,-0.02470837
0.7616,-0.02416245
0.7618,-0.02418918
0.762,-0.02518276
0.7622,-0.024545
0.7624,-0.02446847
0.7626,-0.02408521
0.7628,-0.02077543
0.763,-0.01814209
0.7632,-0.01906731
0.7634,-0.01833714
0.7636,-0.01549296
0.7638,-0.01428432
0.764,-0.01200806
0.7642,-0.01100246
0.7644,-0.008809178
0.7646,-0.006639421
0.7648,-0.007541947
0.765,-0.006248788
0.7652,-0.003653737
0.7654,-0.002293247
0.7656,-0.0003272853
0.7658,0.0008158531
0.766,0.002941943
0.7662,0.004879596
0.7664,0.007895709
0.7666,0.01000395
0.7668,0.01047002
0.767,0.01149844
0.7672,0.01267035
0.7674,0.01508565
0.7676,0.01759836
0.7678,0.01989488
0.768,0.02096258
0.7682,0.02221104
0.7684,0.02287766
0.7686,0.0230744
0.7688,0.02508178
0.769,0.0266571
0.7692,0.02673151
0.7694,0.02679819
0.7696,0.02652489
0.7698,0.02759521
0.77,0.02872206
0.7702,0.02992499
0.7704,0.02997733
0.7706,0.03053324
0.7708,0.03089596
0.771,0.03050498
0.7712,0.03032018
0.7714,0.02947997
0.7716,0.02714466
0.7718,0.02689992
0.772,0.02796647
0.7722,0.02678333
0.7724,0.02495958
0.7726,0.02481486
0.7728,0.02289606
0.773,0.02100315
0.7732,0.01999718
0.7734,0.02011845
0.7736,0.01883548
0.7738,0.01686644
0.774,0.01627907
0.7742,0.01550797
0.7744,0.01342007
0.7746,0.01023582
0.7748,0.008926725
0.775,0.009284102
0.7752,0.007587524
0.7754,0.00444068
0.7756,0.003652389
0.7758,0.001014126
0.776,-0.001905043
0.7762,-0.003682312
0.7764,-0.005514858
0.7766,-0.006138279
0.7768,-0.008863511
0.777,-0.01067317
0.7772,-0.01310174
0.7774,-0.0172134
0.7776,-0.02134887
0.7778,-0.02311641
0.778,-0.02325109
0.7782,-0.02275435
0.7784,-0.02395501
0.7786,-0.02447131
0.7788,-0.02582227
0.779,-0.02618947
0.7792,-0.02448734
0.7794,-0.02428606
0.7796,-0.02380059
0.7798,-0.02412016
0.78,-0.02507952
0.7802,-0.02547154
0.7804,-0.02676249
0.7806,-0.02833521
0.7808,-0.02794648
0.781,-0.02515157
0.7812,-0.02470428
0.7814,-0.02517705
0.7816,-0.02417872
0.7818,-0.02354189
0.782,-0.0227866
0.7822,-0.0227902
0.7824,-0.02291071
0.7826,-0.02085659
0.7828,-0.01864604
0.783,-0.01767486
0.7832,-0.01608327
0.7834,-0.01454849
0.7836,-0.01297236
0.7838,-0.01159994
0.784,-0.01080996
0.7842,-0.01066927
0.7844,-0.009147424
0.7846,-0.008107591
0.7848,-0.007384782
0.785,-0.006878367
0.7852,-0.006738465
0.7854,-0.003089094
0.7856,-0.0004803854
0.7858,0.0008078012
0.786,0.001188247
0.7862,0.001036007
0.7864,-0.0001974237
0.7866,0.001264586
0.7868,0.004044889
0.787,0.006747494
0.7872,0.008098641
0.7874,0.008185168
0.7876,0.008848085
0.7878,0.0126629
0.788,0.014894
0.7882,0.01525711
0.7884,0.0169038
0.7886,0.01766787
0.7888,0.01811896
0.789,0.0190439
0.7892,0.02125695
0.7894,0.02284114
0.7896,0.02387749
0.7898,0.02456523
0.79,0.02499462
0.7902,0.02692991
0.7904,0.0276451
0.7906,0.02814549
0.7908,0.02801618
0.791,0.02708214
0.7912,0.02639114
0.7914,0.02789021
0.7916,0.02682264
0.7918,0.02500338
0.792,0.02497325
0.7922,0.02422429
0.7924,0.02380047
0.7926,0.02080323
0.7928,0.01864252
0.793,0.01795335
0.7932,0.01824868
0.7934,0.01801983
0.7936,0.0160653
0.7938,0.01429934
0.794,0.01374175
0.7942,0.01174093
0.7944,0.009351341
0.7946,0.007784951
0.7948,0.007097264
0.795,0.004529729
0.7952,0.003730545
0.7954,0.001774466
0.7956,-0.001014971
0.7958,-0.002837742
0.796,-0.004325858
0.7962,-0.005402005
0.7964,-0.005933004
0.7966,-0.007064582
0.7968,-0.009698356
0.797,-0.01109976
0.7972,-0.0112223
0.7974,-0.01107421
0.7976,-0.01389035
0.7978,-0.01815451
0.798,-0.01984438
0.7982,-0.02233848
0.7984,-0.02344302
0.7986,-0.02495385
0.7988,-0.0253848
0.799,-0.02546762
0.7992,-0.025176
0.7994,-0.02551891
0.7996,-0.02597654
0.7998,-0.02535201
0.8,-0.02517954
0.8002,-0.02533492
0.8004,-0.02431536
0.8006,-0.02512673
0.8008,-0.02568227
0.801,-0.024955
0.8012,-0.02421992
0.8014,-0.02323209
0.8016,-0.02288065
0.8018,-0.02370262
0.802,-0.02379634
0.8022,-0.02264428
0.8024,-0.02232826
0.8026,-0.02062007
0.8028,-0.01902701
0.803,-0.01820107
0.8032,-0.01636739
0.8034,-0.01457013
0.8036,-0.01368209
0.8038,-0.01246731
0.804,-0.01097228
0.8042,-0.01087529
0.8044,-0.008263199
0.8046,-0.004690819
0.8048,-0.003454611
0.805,-0.002586425
0.8052,-0.0004465281
0.8054,0.0004159547
0.8056,0.001189472
0.8058,0.002662908
0.806,0.003777818
0.8062,0.005437463
0.8064,0.007102161
0.8066,0.008087037
0.8068,0.01119748
0.807,0.01418639
0.8072,0.01624552
0.8074,0.01736405
0.8076,0.01793256
0.8078,0.01875757
0.808,0.02037503
0.8082,0.02211413
0.8084,0.02432656
0.8086,0.02412863
0.8088,0.02459525
0.809,0.02563382
0.8092,0.02610299
0.8094,0.02595636
0.8096,0.02735581
0.8098,0.02852168
0.81,0.02792144
0.8102,0.02741732
0.8104,0.02672165
0.8106,0.02575781
0.8108,0.02676574
0.811,0.02709139
0.8112,0.0257087
0.8114,0.0232803
0.8116,0.02219865
0.8118,0.02233791
0.812,0.0236198
0.8122,0.02414323
0.8124,0.02361896
0.8126,0.02359313
0.8128,0.02468659
0.813,0.02361851
0.8132,0.02139699
0.8134,0.01918304
0.8136,0.01803206
0.8138,0.01703782
0.814,0.01486693
0.8142,0.01257844
0.8144,0.01199549
0.8146,0.01105147
0.8148,0.009439179
0.815,0.007283428
0.8152,0.004017313
0.8154,9.183549e-05
0.8156,-0.003522254
0.8158,-0.006709552
0.816,-0.007156017
0.8162,-0.009138008
0.8164,-0.01135033
0.8166,-0.01185968
0.8168,-0.01263161
0.817,-0.01456446
0.8172,-0.01581608
0.8174,-0.01675871
0.8176,-0.01714021
0.8178,-0.01795581
0.818,-0.01978359
0.8182,-0.02164604
0.8184,-0.02308116
0.8186,-0.02486848
0.8188,-0.02594884
0.819,-0.02750623
0.8192,-0.02896048
0.8194,-0.0293621
0.8196,-0.03113244
0.8198,-0.03208351
0.82,-0.03369188
0.8202,-0.0340811
0.8204,-0.03209852
0.8206,-0.03151702
0.8208,-0.03065462
0.821,-0.02965501
0.8212,-0.0283926
0.8214,-0.02735194
0.8216,-0.02744227
0.8218,-0.0269493
0.822,-0.0258182
0.8222,-0.02524133
0.8224,-0.02331438
0.8226,-0.02226465
0.8228,-0.02081296
0.823,-0.01954273
0.8232,-0.01892651
0.8234,-0.01816696
0.8236,-0.01698264
0.8238,-0.01528872
0.824,-0.01312609
0.8242,-0.0110352
0.8244,-0.008484511
0.8246,-0.00673149
0.8248,-0.005915563
0.825,-0.003893287
0.8252,-0.003568737
0.8254,-0.003410776
0.8256,-0.001032103
0.8258,0.001716821
0.826,0.005751434
0.8262,0.008692537
0.8264,0.01058016
0.8266,0.01160895
0.8268,0.01412462
0.827,0.01638268
0.8272,0.01787819
0.8274,0.01811237
0.8276,0.01914934
0.8278,0.02082477
0.828,0.02134552
0.8282,0.022016
0.8284,0.02394076
0.8286,0.02477337
0.8288,0.02418116
0.829,0.02447795
0.8292,0.02416664
0.8294,0.0231058
0.8296,0.02057957
0.8298,0.01944804
0.83,0.02094733
0.8302,0.02137784
0.8304,0.02413967
0.8306,0.02535621
0.8308,0.02380393
0.831,0.02509157
0.8312,0.02775972
0.8314,0.02823542
0.8316,0.02749873
0.8318,0.0271342
0.832,0.02623598
0.8322,0.02617782
0.8324,0.02582519
0.8326,0.02578426
0.8328,0.02515251
0.833,0.02405139
0.8332,0.0226038
0.8334,0.02175995
0.8336,0.02042328
0.8338,0.01859879
0.834,0.01650309
0.8342,0.01375269
0.8344,0.01114173
0.8346,0.01028575
0.8348,0.01033664
0.835,0.00908249
0.8352,0.008119866
0.8354,0.008551733
0.8356,0.005778477
0.8358,0.001707667
0.836,-0.001164984
0.8362,-0.003949131
0.8364,-0.004513031
0.8366,-0.005571939
0.8368,-0.006665988
0.837,-0.008668025
0.8372,-0.01186159
0.8374,-0.01326172
0.8376,-0.01463153
0.8378,-0.01592631
0.838,-0.01860902
0.8382,-0.02186481
0.8384,-0.02308543
0.8386,-0.02525632
0.8388,-0.0260082
0.839,-0.02635503
0.8392,-0.02732567
0.8394,-0.02738431
0.8396,-0.02756938
0.8398,-0.02730028
0.84,-0.02930062
0.8402,-0.03053954
0.8404,-0.02988826
0.8406,-0.02876885
0.8408,-0.02892398
0.841,-0.02821338
0.8412,-0.02793309
0.8414,-0.02775984
0.8416,-0.02869658
0.8418,-0.03063947
0.842,-0.03043997
0.8422,-0.03065023
0.8424,-0.03094875
0.8426,-0.03064827
0.8428,-0.02984233
0.843,-0.02866065
0.8432,-0.02710524
0.8434,-0.02565317
0.8436,-0.02355644
0.8438,-0.02110472
0.844,-0.01693057
0.8442,-0.01355101
0.8444,-0.0120554
0.8446,-0.01074397
0.8448,-0.00955942
0.845,-0.007761289
0.8452,-0.00586867
0.8454,-0.004571844
0.8456,-0.003171497
0.8458,-0.002742917
0.846,-0.001068334
0.8462,0.001325695
0.8464,0.003498317
0.8466,0.005025552
0.8468,0.006042777
0.847,0.007971113
0.8472,0.009836325
0.8474,0.01323409
0.8476,0.01513249
0.8478,0.01707434
0.848,0.01662521
0.8482,0.01736616
0.8484,0.01803679
0.8486,0.0195321
0.8488,0.02160266
0.849,0.02272665
0.8492,0.02339943
0.8494,0.02547811
0.8496,0.02719966
0.8498,0.02764832
0.85,0.0291525
0.8502,0.03004774
0.8504,0.0304649
0.8506,0.03121535
0.8508,0.03152701
0.851,0.031285
0.8512,0.03193229
0.8514,0.03227314
0.8516,0.03283939
0.8518,0.0347006
0.852,0.03386886
0.8522,0.03401417
0.8524,0.03323649
0.8526,0.0318277
0.8528,0.0319537
0.853,0.03134999
0.8532,0.0301004
0.8534,0.0285947
0.8536,0.0264296
0.8538,0.02417492
0.854,0.0215439
0.8542,0.02005148
0.8544,0.01710667
0.8546,0.01382694
0.8548,0.01152132
0.855,0.009785047
0.8552,0.0078594
0.8554,0.00492161
0.8556,0.003455259
0.8558,0.00242919
0.856,0.001956798
0.8562,-0.0001701299
0.8564,-0.001197504
0.8566,-0.003676599
0.8568,-0.007547165
0.857,-0.01121815
0.8572,-0.01479899
0.8574,-0.01709887
0.8576,-0.0189218
0.8578,-0.02041383
0.858,-0.02154051
0.8582,-0.02410516
0.8584,-0.02634453
0.8586,-0.02811898
0.8588,-0.03098997
0.859,-0.03227909
0.8592,-0.03214926
0.8594,-0.03215101
0.8596,-0.03151974
0.8598,-0.03161495
0.86,-0.03159852
0.8602,-0.03151952
0.8604,-0.03182694
0.8606,-0.03250376
0.8608,-0.03255398
0.861,-0.03255299
0.8612,-0.03182248
0.8614,-0.03094626
0.8616,-0.03125441
0.8618,-0.0318743
0.862,-0.03139433
0.8622,-0.02923746
0.8624,-0.02929528
0.8626,-0.02845964
0.8628,-0.02708835
0.863,-0.02510843
0.8632,-0.02168642
0.8634,-0.01863701
0.8636,-0.01697956
0.8638,-0.01589368
0.864,-0.0122993
0.8642,-0.01016917
0.8644,-0.00904345
0.8646,-0.006638675
0.8648,-0.004729542
0.865,-0.003972561
0.8652,-0.003641277
0.8654,-0.001473847
0.8656,0.001602613
0.8658,0.004297746
0.866,0.005554143
0.8662,0.007895174
0.8664,0.009837488
0.8666,0.009751431
0.8668,0.01124695
0.867,0.01256868
0.8672,0.0131954
0.8674,0.01408396
0.8676,0.0166158
0.8678,0.01802894
0.868,0.01814617
0.8682,0.01887798
0.8684,0.0198245
0.8686,0.02190227
0.8688,0.02506404
0.869,0.02450466
0.8692,0.02374472
0.8694,0.02365835
0.8696,0.0227405
0.8698,0.02167502
0.87,0.0213353
0.8702,0.02245102
0.8704,0.02243842
0.8706,0.02147502
0.8708,0.02053236
0.871,0.0210453
0.8712,0.02177989
0.8714,0.02261637
0.8716,0.02417864
0.8718,0.02460283
0.872,0.02479917
0.8722,0.02500038
0.8724,0.02464076
0.8726,0.02475881
0.8728,0.02444898
0.873,0.02308624
0.8732,0.02354756
0.8734,0.02300737
0.8736,0.02077233
0.8738,0.0188347
0.874,0.01664333
0.8742,0.01501593
0.8744,0.01327066
0.8746,0.01168711
0.8748,0.009980426
0.875,0.008608454
0.8752,0.007455288
0.8754,0.005148759
0.8756,0.003062027
0.8758,0.0009733149
0.876,-0.0002622375
0.8762,-0.001141003
0.8764,-0.003442504
0.8766,-0.007450654
0.8768,-0.01016559
0.877,-0.01031618
0.8772,-0.01211934
0.8774,-0.01355152
0.8776,-0.01606788
0.8778,-0.01810953
0.878,-0.02012713
0.8782,-0.02210297
0.8784,-0.02358961
0.8786,-0.02328409
0.8788,-0.02376935
0.879,-0.02594398
0.8792,-0.02702728
0.8794,-0.02732845
0.8796,-0.02793348
0.8798,-0.0292805
0.88,-0.02999718
0.8802,-0.03057942
0.8804,-0.03169771
0.8806,-0.02936882
0.8808,-0.02779022
0.881,-0.02755848
0.8812,-0.02928587
0.8814,-0.02831131
0.8816,-0.02682247
0.8818,-0.02709771
0.882,-0.0279846
0.8822,-0.02744766
0.8824,-0.02642518
0.8826,-0.02487678
0.8828,-0.02216985
0.883,-0.01994528
0.8832,-0.01870617
0.8834,-0.01784979
0.8836,-0.0158026
0.8838,-0.01305465
0.884,-0.01214356
0.8842,-0.01195242
0.8844,-0.01126598
0.8846,-0.008971053
0.8848,-0.006803161
0.885,-0.005988826
0.8852,-0.005509918
0.8854,-0.003687501
0.8856,-0.002977545
0.8858,-0.001661625
0.886,-0.0006728053
0.8862,-4.663709e-05
0.8864,0.00139446
0.8866,0.003493527
0.8868,0.004897593
0.887,0.007368253
0.8872,0.01067763
0.8874,0.01342407
0.8876,0.01515444
0.8878,0.01612985
0.888,0.0174509
0.8882,0.01890209
0.8884,0.02042913
0.8886,0.02231098
0.8888,0.02336847
0.889,0.02310013
0.8892,0.02575546
0.8894,0.02758904
0.8896,0.02761666
0.8898,0.02864406
0.89,0.02914226
0.8902,0.02904441
0.8904,0.02889139
0.8906,0.02906836
0.8908,0.02918189
0.891,0.03039391
0.8912,0.03034645
0.8914,0.03061136
0.8916,0.03051897
0.8918,0.02865141
0.892,0.02780711
0.8922,0.02599907
0.8924,0.02446882
0.8926,0.02403501
0.8928,0.0224404
0.893,0.02142587
0.8932,0.02172541
0.8934,0.02193615
0.8936,0.01957858
0.8938,0.01789779
0.894,0.01718515
0.8942,0.01535448
0.8944,0.01315614
0.8946,0.01189069
0.8948,0.009715316
0.895,0.006913202
0.8952,0.005344766
0.8954,0.004529785
0.8956,0.003073589
0.8958,0.0001909437
0.896,-0.002022238
0.8962,-0.002867104
0.8964,-0.004066051
0.8966,-0.005981291
0.8968,-0.007626585
0.897,-0.008641391
0.8972,-0.01113853
0.8974,-0.01367487
0.8976,-0.01523966
0.8978,-0.01571835
0.898,-0.01499262
0.8982,-0.0156229
0.8984,-0.01772733
0.8986,-0.01831499
0.8988,-0.01832638
0.899,-0.01906485
0.8992,-0.02131952
0.8994,-0.02425807
0.8996,-0.02534608
0.8998,-0.02531731
0.9,-0.02504792
0.9002,-0.02612317
0.9004,-0.028129
0.9006,-0.02871284
0.9008,-0.02953216
0.901,-0.02834588
0.9012,-0.02856722
0.9014,-0.02686603
0.9016,-0.02716738
0.9018,-0.02853199
0.902,-0.02853448
0.9022,-0.02825613
0.9024,-0.02742201
0.9026,-0.02657898
0.9028,-0.02449292
0.903,-0.0222192
0.9032,-0.02228882
0.9034,-0.02159795
0.9036,-0.01845361
0.9038,-0.01650068
0.904,-0.01490888
0.9042,-0.01241706
0.9044,-0.009936808
0.9046,-0.007430528
0.9048,-0.006222965
0.905,-0.006092464
0.9052,-0.00527108
0.9054,-0.003601418
0.9056,-0.001186419
0.9058,0.0009933134
0.906,0.003499367
0.9062,0.006327203
0.9064,0.008502739
0.9066,0.01139401
0.9068,0.0159299
0.907,0.01833745
0.9072,0.01992862
0.9074,0.02044922
0.9076,0.01962902
0.9078,0.01835873
0.908,0.01840428
0.9082,0.01869038
0.9084,0.01847289
0.9086,0.01695594
0.9088,0.01587148
0.909,0.01597915
0.9092,0.01662578
0.9094,0.01676265
0.9096,0.01740508
0.9098,0.02129226
0.91,0.02327256
0.9102,0.02329544
0.9104,0.02396504
0.9106,0.02499016
0.9108,0.02490738
0.911,0.02563175
0.9112,0.02672751
0.9114,0.02686252
0.9116,0.02956862
0.9118,0.03097348
0.912,0.03002235
0.9122,0.02892018
0.9124,0.0280134
0.9126,0.02483034
0.9128,0.0234158
0.913,0.02331105
0.9132,0.02300559
0.9134,0.02319845
0.9136,0.02005163
0.9138,0.01743854
0.914,0.01589263
0.9142,0.01544286
0.9144,0.01477881
0.9146,0.01318048
0.9148,0.01143404
0.915,0.009842875
0.9152,0.008993252
0.9154,0.007236513
0.9156,0.005899903
0.9158,0.003806663
0.916,9.55108e-06
0.9162,-0.002308543
0.9164,-0.005050581
0.9166,-0.007221706
0.9168,-0.009291589
0.917,-0.01170195
0.9172,-0.01479353
0.9174,-0.01814494
0.9176,-0.02031053
0.9178,-0.02262089
0.918,-0.02482925
0.9182,-0.02622067
0.9184,-0.0269799
0.9186,-0.02746518
0.9188,-0.02906515
0.919,-0.02940452
0.9192,-0.02893456
0.9194,-0.02961515
0.9196,-0.0301952
0.9198,-0.03194735
0.92,-0.03322252
0.9202,-0.0337741
0.9204,-0.03451552
0.9206,-0.03420717
0.9208,-0.0340024
0.921,-0.03322008
0.9212,-0.03289535
0.9214,-0.03350716
0.9216,-0.03197466
0.9218,-0.03170606
0.922,-0.02932659
0.9222,-0.02750074
0.9224,-0.02601833
0.9226,-0.02458494
0.9228,-0.02492365
0.923,-0.02327392
0.9232,-0.02040028
0.9234,-0.01804825
0.9236,-0.01652072
0.9238,-0.01546769
0.924,-0.01320495
0.9242,-0.01235439
0.9244,-0.01066943
0.9246,-0.008893317
0.9248,-0.006338859
0.925,-0.00481951
0.9252,-0.003095457
0.9254,-0.001547317
0.9256,0.0006042393
0.9258,0.003685049
0.926,0.004496224
0.9262,0.006499828
0.9264,0.008060642
0.9266,0.01075454
0.9268,0.01287078
0.927,0.01484609
0.9272,0.01738505
0.9274,0.01862395
0.9276,0.01980266
0.9278,0.02149164
0.928,0.02198685
0.9282,0.02354847
0.9284,0.02447277
0.9286,0.02508424
0.9288,0.0253528
0.929,0.02687347
0.9292,0.02765691
0.9294,0.02849171
0.9296,0.02911592
0.9298,0.03059775
0.93,0.03158211
0.9302,0.03193995
0.9304,0.03302039
0.9306,0.03216387
0.9308,0.03142871
0.931,0.03140407
0.9312,0.02890092
0.9314,0.02700418
0.9316,0.02810699
0.9318,0.02952741
0.932,0.0313509
0.9322,0.03133679
0.9324,0.02840621
0.9326,0.02610286
0.9328,0.02461173
0.933,0.02204899
0.9332,0.0214272
0.9334,0.02066931
0.9336,0.01931355
0.9338,0.01801211
0.934,0.01583859
0.9342,0.0128468
0.9344,0.01120661
0.9346,0.009386403
0.9348,0.006987572
0.935,0.006228709
0.9352,0.004344326
0.9354,0.002844299
0.9356,0.0007510568
0.9358,0.0006756684
0.936,-0.0003462728
0.9362,-0.001432241
0.9364,-0.002297211
0.9366,-0.005067116
0.9368,-0.007730692
0.937,-0.01006524
0.9372,-0.01205275
0.9374,-0.01331322
0.9376,-0.01446136
0.9378,-0.01534749
0.938,-0.01625352
0.9382,-0.01941284
0.9384,-0.02215289
0.9386,-0.02293248
0.9388,-0.0248616
0.939,-0.02561525
0.9392,-0.02548803
0.9394,-0.02561926
0.9396,-0.02534751
0.9398,-0.02631563
0.94,-0.02680939
0.9402,-0.02862301
0.9404,-0.02876064
0.9406,-0.02856825
0.9408,-0.02983948
0.941,-0.02989514
0.9412,-0.02948575
0.9414,-0.02843791
0.9416,-0.02842429
0.9418,-0.02947858
0.942,-0.0286877
0.9422,-0.02781264
0.9424,-0.02651731
0.9426,-0.02572798
0.9428,-0.02648322
0.943,-0.02463256
0.9432,-0.0235954
0.9434,-0.02098853
0.9436,-0.01791119
0.9438,-0.017836
0.944,-0.01691277
0.9442,-0.01480516
0.9444,-0.01142862
0.9446,-0.008100971
0.9448,-0.007075199
0.945,-0.005751204
0.9452,-0.004396697
0.9454,-0.002986713
0.9456,-0.002847249
0.9458,-0.0002423304
0.946,0.003375498
0.9462,0.005574623
0.9464,0.006278549
0.9466,0.007957105
0.9468,0.009873297
0.947,0.01246684
0.9472,0.01327656
0.9474,0.0129175
0.9476,0.01588956
0.9478,0.01817152
0.948,0.02075012
0.9482,0.02328116
0.9484,0.0242771
0.9486,0.02492399
0.9488,0.02622124
0.949,0.0279918
0.9492,0.02858677
0.9494,0.0275422
0.9496,0.02658655
0.9498,0.02874357
0.95,0.0301341
0.9502,0.03047612
0.9504,0.02942191
0.9506,0.02885386
0.9508,0.02807239
0.951,0.02857596
0.9512,0.02905515
0.9514,0.0290325
0.9516,0.03034907
0.9518,0.03096394
0.952,0.03083685
0.9522,0.03045102
0.9524,0.02748772
0.9526,0.02508543
0.9528,0.02440839
0.953,0.023959
0.9532,0.02280953
0.9534,0.02273111
0.9536,0.02070343
0.9538,0.01820686
0.954,0.01684653
0.9542,0.01456085
0.9544,0.01117444
0.9546,0.009506227
0.9548,0.007214402
0.955,0.005666446
0.9552,0.004838117
0.9554,0.002598215
0.9556,0.001101336
0.9558,-0.001127639
0.956,-0.004184434
0.9562,-0.00651031
0.9564,-0.008555435
0.9566,-0.01041249
0.9568,-0.01261037
0.957,-0.01401045
0.9572,-0.01565456
0.9574,-0.0184489
0.9576,-0.02125524
0.9578,-0.02156547
0.958,-0.02344345
0.9582,-0.02506313
0.9584,-0.02587877
0.9586,-0.02684243
0.9588,-0.02963554
0.959,-0.03070791
0.9592,-0.03065411
0.9594,-0.03224351
0.9596,-0.03183859
0.9598,-0.03255303
0.96,-0.03134917
0.9602,-0.03158547
0.9604,-0.03219541
0.9606,-0.03290868
0.9608,-0.03306277
0.961,-0.03360434
0.9612,-0.03331044
0.9614,-0.03158446
0.9616,-0.03156789
0.9618,-0.03180849
0.962,-0.03023202
0.9622,-0.02825683
0.9624,-0.02620291
0.9626,-0.02555191
0.9628,-0.02597678
0.963,-0.02434376
0.9632,-0.02143454
0.9634,-0.02006213
0.9636,-0.0180914
0.9638,-0.01630635
0.964,-0.0143432
0.9642,-0.01196579
0.9644,-0.009873712
0.9646,-0.007956651
0.9648,-0.005779664
0.965,-0.003410574
0.9652,-0.002203154
0.9654,-0.001863049
0.9656,-0.0003178528
0.9658,0.002621762
0.966,0.005895884
0.9662,0.008778075
0.9664,0.009403425
0.9666,0.009568409
0.9668,0.009605526
0.967,0.01089981
0.9672,0.01337097
0.9674,0.0164459
0.9676,0.01903324
0.9678,0.02124063
0.968,0.02253321
0.9682,0.0221968
0.9684,0.02364963
0.9686,0.02600532
0.9688,0.02725845
0.969,0.02643153
0.9692,0.0273662
0.9694,0.02828061
0.9696,0.02894852
0.9698,0.02839459
0.97,0.03012865
0.9702,0.03161839
0.9704,0.03101694
0.9706,0.02964474
0.9708,0.02938537
0.971,0.02894299
0.9712,0.0283654
0.9714,0.02876277
0.9716,0.02898695
0.9718,0.02924645
0.972,0.02876916
0.9722,0.02717389
0.9724,0.02559166
0.9726,0.02420671
0.9728,0.02337234
0.973,0.02264603
0.9732,0.02440991
0.9734,0.02268778
0.9736,0.02006792
0.9738,0.01714378
0.974,0.01386243
0.9742,0.01127908
0.9744,0.009902158
0.9746,0.007281342
0.9748,0.005339763
0.975,0.004234974
0.9752,0.003225519
0.9754,0.002041695
0.9756,0.001234564
0.9758,0.0007778247
0.976,-0.001864171
0.9762,-0.003946435
0.9764,-0.005028295
0.9766,-0.007851779
0.9768,-0.01202088
0.977,-0.0129629
0.9772,-0.01365575
0.9774,-0.01441799
0.9776,-0.01596846
0.9778,-0.01679325
0.978,-0.01775853
0.9782,-0.02056594
0.9784,-0.0209888
0.9786,-0.02170677
0.9788,-0.02316603
0.979,-0.02273389
0.9792,-0.02405369
0.9794,-0.02662081
0.9796,-0.02692582
0.9798,-0.02731718
0.98,-0.02772171
0.9802,-0.02796035
0.9804,-0.02778223
0.9806,-0.02958847
0.9808,-0.03350643
0.981,-0.03321412
0.9812,-0.0327665
0.9814,-0.0328945
0.9816,-0.03203631
0.9818,-0.03135228
0.982,-0.02927678
0.9822,-0.02588747
0.9824,-0.02344882
0.9826,-0.02224471
0.9828,-0.02041023
0.983,-0.01882204
0.9832,-0.018962
0.9834,-0.0188904
0.9836,-0.01609605
0.9838,-0.01361433
0.984,-0.01189782
0.9842,-0.01167591
0.9844,-0.0120484
0.9846,-0.01260084
0.9848,-0.01124942
0.985,-0.009536083
0.9852,-0.00699219
0.9854,-0.005325571
0.9856,-0.003831205
0.9858,-0.002428539
0.986,-1.192918e-05
0.9862,0.002075952
0.9864,0.003947129
0.9866,0.006600672
0.9868,0.00790511
0.987,0.01103124
0.9872,0.01339983
0.9874,0.0148152
0.9876,0.01828196
0.9878,0.02123047
0.988,0.0225386
0.9882,0.02327452
0.9884,0.02604487
0.9886,0.02792403
0.9888,0.0280933
0.989,0.02865457
0.9892,0.02961801
0.9894,0.03030338
0.9896,0.03058677
0.9898,0.03101131
0.99,0.02981746
0.9902,0.0289294
0.9904,0.02947309
0.9906,0.0292898
0.9908,0.03045039
0.991,0.03049861
0.9912,0.02848288
0.9914,0.02736288
0.9916,0.02798656
0.9918,0.02929986
0.992,0.0300764
0.9922,0.02703554
0.9924,0.02314642
0.9926,0.02171846
0.9928,0.02024992
0.993,0.01873312
0.9932,0.01783087
0.9934,0.01777535
0.9936,0.01933964
0.9938,0.01707297
0.994,0.01366463
0.9942,0.0103399
0.9944,0.007638333
0.9946,0.005829884
0.9948,0.004149953
0.995,0.003593769
0.9952,0.00274006
0.9954,0.001291409
0.9956,-0.0002443558
0.9958,-0.002377178
0.996,-0.00604595
0.9962,-0.009165047
0.9964,-0.01085445
0.9966,-0.01181645
0.9968,-0.01447839
0.997,-0.01905343
0.9972,-0.02074316
0.9974,-0.02070554
0.9976,-0.02147047
0.9978,-0.02323634
0.998,-0.0235079
0.9982,-0.02327571
0.9984,-0.02389445
0.9986,-0.02633609
0.9988,-0.02777828
0.999,-0.02772231
0.9992,-0.02964222
0.9994,-0.02982372
0.9996,-0.02888783
0.9998,-0.02867599
1.0,-0.02841439
1.0002,-0.02889549
1.0004,-0.02813613
1.0006,-0.02798387
1.0008,-0.02838964
1.001,-0.02758768
1.0012,-0.0260454
1.0014,-0.02667168
1.0016,-0.02661097
1.0018,-0.02556546
1.002,-0.0242714
1.0022,-0.02502917
1.0024,-0.02402302
1.0026,-0.02171265
1.0028,-0.01941849
1.003,-0.01865082
1.0032,-0.01867913
1.0034,-0.01816945
1.0036,-0.01578215
1.0038,-0.0136398
1.004,-0.0127855
1.0042,-0.01024517
1.0044,-0.007857352
1.0046,-0.005272792
1.0048,-0.003579128
1.005,-0.002420563
1.0052,-0.0004940224
1.0054,-0.0009093448
1.0056,0.0005168497
1.0058,0.00404668
1.006,0.005254298
1.0062,0.006218225
1.0064,0.008061852
1.0066,0.009345033
1.0068,0.01285845
1.007,0.01492845
1.0072,0.01586052
1.0074,0.01647871
1.0076,0.01723272
1.0078,0.01922365
1.008,0.0203721
1.0082,0.0210351
1.0084,0.02174226
1.0086,0.02335162
1.0088,0.02502918
1.009,0.02608188
1.0092,0.02805864
1.0094,0.02949172
1.0096,0.0311292
1.0098,0.03185439
1.01,0.03287781
1.0102,0.03375581
1.0104,0.03283403
1.0106,0.03355641
1.0108,0.03330418
1.011,0.0322208
1.0112,0.03176691
1.0114,0.03029537
1.0116,0.02978929
1.0118,0.02858193
1.012,0.02787557
1.0122,0.02683904
1.0124,0.02492367
1.0126,0.02322506
1.0128,0.02144626
1.013,0.0205305
1.0132,0.01947964
1.0134,0.01880034
1.0136,0.01765128
1.0138,0.01369292
1.014,0.01160104
1.0142,0.0109865
1.0144,0.01024321
1.0146,0.007514633
1.0148,0.004886146
1.015,0.004286088
1.0152,0.002077387
1.0154,0.001762304
1.0156,0.0004203326
1.0158,-0.002333042
1.016,-0.004570811
1.0162,-0.006995858
1.0164,-0.007845037
1.0166,-0.009428948
1.0168,-0.01075292
1.017,-0.01211547
1.0172,-0.01533689
1.0174,-0.01658057
1.0176,-0.01688058
1.0178,-0.01902824
1.018,-0.02031605
1.0182,-0.021471
1.0184,-0.0235137
1.0186,-0.02421395
1.0188,-0.0247753
1.019,-0.02582113
1.0192,-0.02640984
1.0194,-0.02627266
1.0196,-0.02894206
1.0198,-0.03173622
1.02,-0.03149766
1.0202,-0.03151481
1.0204,-0.030301
1.0206,-0.02977017
1.0208,-0.03077259
1.021,-0.03111277
1.0212,-0.02982413
1.0214,-0.03056492
1.0216,-0.02943232
1.0218,-0.02882249
1.022,-0.02826239
1.0222,-0.02677974
1.0224,-0.02692416
1.0226,-0.02440644
1.0228,-0.02234069
1.023,-0.01942111
1.0232,-0.01890568
1.0234,-0.01800078
1.0236,-0.01582632
1.0238,-0.01392785
1.024,-0.01268489
1.0242,-0.01149605
1.0244,-0.008646365
1.0246,-0.006444472
1.0248,-0.005081568
1.025,-0.002909432
1.0252,-0.0009338699
1.0254,-0.0007713567
1.0256,0.0003571823
1.0258,0.002308863
1.026,0.004043035
1.0262,0.005623289
1.0264,0.006002463
1.0266,0.007360423
1.0268,0.009447287
1.027,0.009427237
1.0272,0.01232395
1.0274,0.01581294
1.0276,0.01807688
1.0278,0.01947863
1.028,0.02167606
1.0282,0.02409728
1.0284,0.02550114
1.0286,0.02601561
1.0288,0.0254709
1.029,0.0247569
1.0292,0.02572902
1.0294,0.02685026
1.0296,0.0276964
1.0298,0.02930062
1.03,0.02989174
1.0302,0.02962713
1.0304,0.03021552
1.0306,0.02901309
1.0308,0.02847643
1.031,0.02758648
1.0312,0.02635486
1.0314,0.02447951
1.0316,0.02520883
1.0318,0.02576432
1.032,0.02701119
1.0322,0.02738643
1.0324,0.02722637
1.0326,0.02657326
1.0328,0.02496506
1.033,0.0236418
1.0332,0.02295416
1.0334,0.02231594
1.0336,0.01960984
1.0338,0.01715987
1.034,0.01539996
1.0342,0.01330667
1.0344,0.01106207
1.0346,0.009948259
1.0348,0.008752322
1.035,0.006906667
1.0352,0.004351105
1.0354,0.002122999
1.0356,0.002183743
1.0358,0.001412276
1.036,-0.001374301
1.0362,-0.005044203
1.0364,-0.005714747
1.0366,-0.007350884
1.0368,-0.00922649
1.037,-0.01145262
1.0372,-0.01316055
1.0374,-0.01282509
1.0376,-0.0138642
1.0378,-0.01596403
1.038,-0.01770166
1.0382,-0.01999608
1.0384,-0.02273746
1.0386,-0.02348696
1.0388,-0.02408179
1.039,-0.02420411
1.0392,-0.02520642
1.0394,-0.02627124
1.0396,-0.02737213
1.0398,-0.02790483
1.04,-0.02731994
1.0402,-0.0290018
1.0404,-0.03132468
1.0406,-0.02996555
1.0408,-0.02822435
1.041,-0.02684547
1.0412,-0.02721947
1.0414,-0.02789167
1.0416,-0.02714229
1.0418,-0.02744224
1.042,-0.0272717
1.0422,-0.02543348
1.0424,-0.02316702
1.0426,-0.02244906
1.0428,-0.022014
1.043,-0.02164929
1.0432,-0.02232359
1.0434,-0.0215634
1.0436,-0.02025938
1.0438,-0.01756459
1.044,-0.01522545
1.0442,-0.01299095
1.0444,-0.01155291
1.0446,-0.01162567
1.0448,-0.01051841
1.045,-0.008000369
1.0452,-0.005255176
1.0454,-0.004592594
1.0456,-0.004156925
1.0458,-0.002108342
1.046,0.0005880035
1.0462,0.00380385
1.0464,0.005365036
1.0466,0.007490748
1.0468,0.01027051
1.047,0.01185988
1.0472,0.01358275
1.0474,0.01538223
1.0476,0.01619614
1.0478,0.0179812
1.048,0.02014484
1.0482,0.02225595
1.0484,0.02251548
1.0486,0.0235757
1.0488,0.02485982
1.049,0.02641316
1.0492,0.02671797
1.0494,0.02563338
1.0496,0.02712922
1.0498,0.0264116
1.05,0.02586662
1.0502,0.02775597
1.0504,0.02917502
1.0506,0.0291736
1.0508,0.02933004
1.051,0.02958493
1.0512,0.03013905
1.0514,0.02849673
1.0516,0.02759857
1.0518,0.02878888
1.052,0.02925605
1.0522,0.02894301
1.0524,0.02807129
1.0526,0.02538023
1.0528,0.02379875
1.053,0.02509891
1.0532,0.02369405
1.0534,0.02217956
1.0536,0.01943126
1.0538,0.0165446
1.054,0.01428682
1.0542,0.01313672
1.0544,0.01116736
1.0546,0.008121691
1.0548,0.006816335
1.055,0.006275075
1.0552,0.005414568
1.0554,0.003872841
1.0556,0.0007351862
1.0558,-0.001856035
1.056,-0.00419359
1.0562,-0.005702685
1.0564,-0.00714733
1.0566,-0.007684626
1.0568,-0.008178947
1.057,-0.01019284
1.0572,-0.01244217
1.0574,-0.01617448
1.0576,-0.01931508
1.0578,-0.02082556
1.058,-0.02144877
1.0582,-0.02168103
1.0584,-0.02238025
1.0586,-0.02411257
1.0588,-0.02543763
1.059,-0.02756338
1.0592,-0.02748949
1.0594,-0.02761633
1.0596,-0.02819449
1.0598,-0.02789503
1.06,-0.02868089
1.0602,-0.03068522
1.0604,-0.03320392
1.0606,-0.0334153
1.0608,-0.03317745
1.061,-0.03290178
1.0612,-0.03302965
1.0614,-0.03313533
1.0616,-0.03280428
1.0618,-0.0322522
1.062,-0.03156243
1.0622,-0.03062206
1.0624,-0.02959952
1.0626,-0.02662647
1.0628,-0.02453895
1.063,-0.02333341
1.0632,-0.02278539
1.0634,-0.02095908
1.0636,-0.01927787
1.0638,-0.01898376
1.064,-0.01587143
1.0642,-0.01265344
1.0644,-0.01040695
1.0646,-0.00896956
1.0648,-0.007393171
1.065,-0.005781649
1.0652,-0.00290878
1.0654,0.000427746
1.0656,0.002057418
1.0658,0.003207038
1.066,0.005815792
1.0662,0.007565811
1.0664,0.008020119
1.0666,0.009623029
1.0668,0.01183507
1.067,0.01360332
1.0672,0.01598767
1.0674,0.01906897
1.0676,0.01965764
1.0678,0.02103668
1.068,0.0225022
1.0682,0.02430421
1.0684,0.02684594
1.0686,0.0283035
1.0688,0.03030183
1.069,0.03071124
1.0692,0.03084724
1.0694,0.03096763
1.0696,0.03190622
1.0698,0.0309425
1.07,0.03102079
1.0702,0.03256751
1.0704,0.03252368
1.0706,0.03165761
1.0708,0.03125378
1.071,0.02959461
1.0712,0.02718354
1.0714,0.0269387
1.0716,0.02673695
1.0718,0.02703783
1.072,0.02713311
1.0722,0.02742562
1.0724,0.02707191
1.0726,0.02360535
1.0728,0.02205068
1.073,0.020421
1.0732,0.01781784
1.0734,0.0163785
1.0736,0.01496879
1.0738,0.01284903
1.074,0.01108864
1.0742,0.008128962
1.0744,0.005536657
1.0746,0.003494083
1.0748,0.003678209
1.075,0.00410086
1.0752,0.003205425
1.0754,-1.225753e-05
1.0756,-0.002791463
1.0758,-0.005319434
1.076,-0.007420196
1.0762,-0.006992158
1.0764,-0.008025466
1.0766,-0.008321122
1.0768,-0.009379367
1.077,-0.01124176
1.0772,-0.01369947
1.0774,-0.0154942
1.0776,-0.01485579
1.0778,-0.01693228
1.078,-0.01862343
1.0782,-0.02085477
1.0784,-0.02385677
1.0786,-0.02436175
1.0788,-0.02583977
1.079,-0.02686066
1.0792,-0.02740696
1.0794,-0.02854553
1.0796,-0.02811441
1.0798,-0.02824551
1.08,-0.03005903
1.0802,-0.03266015
1.0804,-0.03273199
1.0806,-0.03187409
1.0808,-0.03177996
1.081,-0.03174288
1.0812,-0.03074564
1.0814,-0.02994555
1.0816,-0.0307705
1.0818,-0.0308128
1.082,-0.03009157
1.0822,-0.02785348
1.0824,-0.02570756
1.0826,-0.02479578
1.0828,-0.02309042
1.083,-0.01997387
1.0832,-0.01899269
1.0834,-0.01775064
1.0836,-0.01672185
1.0838,-0.01530918
1.084,-0.01248275
1.0842,-0.01110536
1.0844,-0.01136378
1.0846,-0.01090657
1.0848,-0.009447209
1.085,-0.008288439
1.0852,-0.006720259
1.0854,-0.003404935
1.0856,-0.0005747968
1.0858,0.001613323
1.086,0.003072124
1.0862,0.003756783
1.0864,0.004825521
1.0866,0.004854908
1.0868,0.005983776
1.087,0.009101536
1.0872,0.01116403
1.0874,0.01215212
1.0876,0.0136902
1.0878,0.01503324
1.088,0.01534755
1.0882,0.01736723
1.0884,0.01866821
1.0886,0.0211642
1.0888,0.02418604
1.089,0.02495031
1.0892,0.02491356
1.0894,0.02633998
1.0896,0.02825784
1.0898,0.0277524
1.09,0.02797816
1.0902,0.02818452
1.0904,0.02980911
1.0906,0.03193049
1.0908,0.03157083
1.091,0.03051306
1.0912,0.03034364
1.0914,0.0299314
1.0916,0.02912519
1.0918,0.02861737
1.092,0.02875762
1.0922,0.0283253
1.0924,0.02805403
1.0926,0.02785795
1.0928,0.02494246
1.093,0.02150238
1.0932,0.02099575
1.0934,0.02015014
1.0936,0.01725798
1.0938,0.01691928
1.094,0.01607928
1.0942,0.01464638
1.0944,0.01083488
1.0946,0.009123696
1.0948,0.009499782
1.095,0.007280696
1.0952,0.004409872
1.0954,0.002534256
1.0956,0.001107961
1.0958,-0.001154171
1.096,-0.003386338
1.0962,-0.004900773
1.0964,-0.006885066
1.0966,-0.006836114
1.0968,-0.009085949
1.097,-0.01205243
1.0972,-0.01368612
1.0974,-0.01455333
1.0976,-0.01607601
1.0978,-0.01751217
1.098,-0.01861031
1.0982,-0.02030101
1.0984,-0.02273083
1.0986,-0.02347194
1.0988,-0.02411394
1.099,-0.02463641
1.0992,-0.02590464
1.0994,-0.02736035
1.0996,-0.02762994
1.0998,-0.02797136
1.1,-0.02898791
1.1002,-0.02940874
1.1004,-0.03093021
1.1006,-0.02922242
1.1008,-0.02772937
1.101,-0.028325
1.1012,-0.02735189
1.1014,-0.0275593
1.1016,-0.02650714
1.1018,-0.02553548
1.102,-0.02472795
1.1022,-0.02274662
1.1024,-0.02194195
1.1026,-0.0210806
1.1028,-0.01985503
1.103,-0.01955928
1.1032,-0.0193286
1.1034,-0.01857162
1.1036,-0.01840532
1.1038,-0.01566905
1.104,-0.01290947
1.1042,-0.01134683
1.1044,-0.01012705
1.1046,-0.009740944
1.1048,-0.008021447
1.105,-0.005628214
1.1052,-0.00293229
1.1054,-0.00215912
1.1056,-0.0003903685
1.1058,0.00289007
1.106,0.004946048
1.1062,0.007294609
1.1064,0.009309877
1.1066,0.01061732
1.1068,0.01255651
1.107,0.01376448
1.1072,0.01583641
1.1074,0.01817022
1.1076,0.01926329
1.1078,0.02067018
1.108,0.02237728
1.1082,0.02145967
1.1084,0.02253407
1.1086,0.02252993
1.1088,0.02327512
1.109,0.02495494
1.1092,0.025681
1.1094,0.02553737
1.1096,0.02512403
1.1098,0.02715326
1.11,0.02744358
1.1102,0.02665566
1.1104,0.02661966
1.1106,0.02707981
1.1108,0.02761932
1.111,0.02744197
1.1112,0.02749704
1.1114,0.02730006
1.1116,0.02696185
1.1118,0.02712063
1.112,0.02673524
1.1122,0.02659545
1.1124,0.02447423
1.1126,0.0217089
1.1128,0.02087725
1.113,0.0200013
1.1132,0.01932065
1.1134,0.01775616
1.1136,0.01614942
1.1138,0.01452559
1.114,0.01216278
1.1142,0.01003596
1.1144,0.008523851
1.1146,0.007487403
1.1148,0.005676427
1.115,0.003327719
1.1152,0.002336241
1.1154,0.0001784317
1.1156,-0.001411839
1.1158,-0.002503711
1.116,-0.005142971
1.1162,-0.008956437
1.1164,-0.01090995
1.1166,-0.01235893
1.1168,-0.01385488
1.117,-0.01522641
1.1172,-0.01625689
1.1174,-0.01522408
1.1176,-0.01394733
1.1178,-0.01400108
1.118,-0.01388452
1.1182,-0.01463459
1.1184,-0.01791192
1.1186,-0.01936316
1.1188,-0.02099899
1.119,-0.02101402
1.1192,-0.02107017
1.1194,-0.02321992
1.1196,-0.02475025
1.1198,-0.02695358
1.12,-0.02676717
1.1202,-0.02566603
1.1204,-0.0264874
1.1206,-0.02758592
1.1208,-0.02893983
1.121,-0.02848835
1.1212,-0.02834428
1.1214,-0.0282045
1.1216,-0.02805451
1.1218,-0.02775999
1.122,-0.02658251
1.1222,-0.02598947
1.1224,-0.02460128
1.1226,-0.02322955
1.1228,-0.02149253
1.123,-0.02056565
1.1232,-0.01900255
1.1234,-0.01858613
1.1236,-0.01913893
1.1238,-0.01680726
1.124,-0.01385539
1.1242,-0.0125903
1.1244,-0.01106425
1.1246,-0.007638875
1.1248,-0.005262575
1.125,-0.004247352
1.1252,-0.003105766
1.1254,-0.002674013
1.1256,-0.00212887
1.1258,0.0002145369
1.126,0.003355641
1.1262,0.006149742
1.1264,0.00793558
1.1266,0.007643165
1.1268,0.009017862
1.127,0.01259198
1.1272,0.01500944
1.1274,0.01588128
1.1276,0.01582184
1.1278,0.01656002
1.128,0.01862144
1.1282,0.0206571
1.1284,0.02198342
1.1286,0.0230724
1.1288,0.02273371
1.129,0.02381576
1.1292,0.02463703
1.1294,0.02556485
1.1296,0.02581793
1.1298,0.02713139
1.13,0.02743394
1.1302,0.02938242
1.1304,0.0301883
1.1306,0.02919267
1.1308,0.02997052
1.131,0.03028513
1.1312,0.0298631
1.1314,0.02878403
1.1316,0.02876186
1.1318,0.02883507
1.132,0.02735795
1.1322,0.02700605
1.1324,0.02726652
1.1326,0.02599316
1.1328,0.02675854
1.133,0.02645254
1.1332,0.02361504
1.1334,0.02094237
1.1336,0.01806691
1.1338,0.01560763
1.134,0.01378355
1.1342,0.01112423
1.1344,0.009794003
1.1346,0.009161229
1.1348,0.00890959
1.135,0.008536674
1.1352,0.006873177
1.1354,0.003485436
1.1356,-0.00044894
1.1358,-0.004056016
1.136,-0.007287405
1.1362,-0.00861369
1.1364,-0.009142305
1.1366,-0.01101105
1.1368,-0.01285894
1.137,-0.01421291
1.1372,-0.01503644
1.1374,-0.0154784
1.1376,-0.01759874
1.1378,-0.01957291
1.138,-0.02300785
1.1382,-0.02431165
1.1384,-0.0251075
1.1386,-0.02539787
1.1388,-0.02496466
1.139,-0.02607857
1.1392,-0.02588312
1.1394,-0.0262731
1.1396,-0.02669661
1.1398,-0.02740651
1.14,-0.02872521
1.1402,-0.02961233
1.1404,-0.03035529
1.1406,-0.03037968
1.1408,-0.03120442
1.141,-0.02957539
1.1412,-0.02811131
1.1414,-0.0272989
1.1416,-0.0271721
1.1418,-0.02724158
1.142,-0.02668543
1.1422,-0.02630242
1.1424,-0.02569058
1.1426,-0.02230651
1.1428,-0.02056539
1.143,-0.02074826
1.1432,-0.0201723
1.1434,-0.01798083
1.1436,-0.01518517
1.1438,-0.01190421
1.144,-0.01017096
1.1442,-0.01007885
1.1444,-0.008422566
1.1446,-0.006964416
1.1448,-0.005945879
1.145,-0.005784365
1.1452,-0.006345225
1.1454,-0.003494834
1.1456,-0.001436237
1.1458,-0.0002375294
1.146,0.002779644
1.1462,0.004700799
1.1464,0.006577997
1.1466,0.008119146
1.1468,0.01299496
1.147,0.01672592
1.1472,0.01725206
1.1474,0.01698216
1.1476,0.01874984
1.1478,0.02090517
1.148,0.02284766
1.1482,0.02385847
1.1484,0.02440874
1.1486,0.02622174
1.1488,0.02684382
1.149,0.02868775
1.1492,0.02826144
1.1494,0.0284016
1.1496,0.03009181
1.1498,0.03213583
1.15,0.03095701
1.1502,0.02950135
1.1504,0.0295518
1.1506,0.02928497
1.1508,0.02926478
1.151,0.02941202
1.1512,0.02950372
1.1514,0.02921076
1.1516,0.02942494
1.1518,0.02888073
1.152,0.02950983
1.1522,0.02784011
1.1524,0.0261684
1.1526,0.02470633
1.1528,0.0220291
1.153,0.01982754
1.1532,0.0198163
1.1534,0.02040488
1.1536,0.01901614
1.1538,0.01787155
1.154,0.01505683
1.1542,0.0139253
1.1544,0.01361726
1.1546,0.01207206
1.1548,0.0100562
1.155,0.007897826
1.1552,0.00625449
1.1554,0.005995296
1.1556,0.003847386
1.1558,0.001911973
1.156,-0.00170961
1.1562,-0.004138757
1.1564,-0.00612193
1.1566,-0.008264202
1.1568,-0.009472027
1.157,-0.01065056
1.1572,-0.01286426
1.1574,-0.01372597
1.1576,-0.01673123
1.1578,-0.01857216
1.158,-0.02006453
1.1582,-0.02173029
1.1584,-0.02069069
1.1586,-0.02166733
1.1588,-0.02400322
1.159,-0.02478683
1.1592,-0.02535719
1.1594,-0.02677284
1.1596,-0.02669412
1.1598,-0.02630394
1.16,-0.02695591
1.1602,-0.02848342
1.1604,-0.02924937
1.1606,-0.02986451
1.1608,-0.03036051
1.161,-0.0289544
1.1612,-0.02929977
1.1614,-0.03133623
1.1616,-0.03248988
1.1618,-0.03277318
1.162,-0.03282974
1.1622,-0.03346537
1.1624,-0.03130423
1.1626,-0.02875381
1.1628,-0.02715111
1.163,-0.025371
1.1632,-0.02383482
1.1634,-0.02268984
1.1636,-0.02171124
1.1638,-0.02002801
1.164,-0.01893476
1.1642,-0.01741835
1.1644,-0.01540496
1.1646,-0.01292285
1.1648,-0.01087035
1.165,-0.009422831
1.1652,-0.008462213
1.1654,-0.005859972
1.1656,-0.002372205
1.1658,-0.0006214229
1.166,0.00229565
1.1662,0.005313203
1.1664,0.007458139
1.1666,0.009476401
1.1668,0.009883427
1.167,0.01196455
1.1672,0.01299673
1.1674,0.01556157
1.1676,0.01691796
1.1678,0.01743312
1.168,0.01905081
1.1682,0.02141051
1.1684,0.0225372
1.1686,0.02357805
1.1688,0.02359139
1.169,0.02508014
1.1692,0.02794312
1.1694,0.0289267
1.1696,0.0287282
1.1698,0.02866783
1.17,0.02968085
1.1702,0.03016364
1.1704,0.02940679
1.1706,0.02994411
1.1708,0.03079084
1.171,0.03020013
1.1712,0.02968158
1.1714,0.02859855
1.1716,0.02782923
1.1718,0.0270738
1.172,0.02683082
1.1722,0.02466973
1.1724,0.02254178
1.1726,0.02233488
1.1728,0.02216182
1.173,0.02111508
1.1732,0.0197338
1.1734,0.01763302
1.1736,0.01735205
1.1738,0.0163332
1.174,0.01395098
1.1742,0.01348126
1.1744,0.01339853
1.1746,0.01269322
1.1748,0.01097625
1.175,0.008162152
1.1752,0.007070602
1.1754,0.006374496
1.1756,0.00452413
1.1758,0.002105756
1.176,-8.476763e-05
1.1762,-0.002756784
1.1764,-0.004805451
1.1766,-0.006593851
1.1768,-0.008933697
1.177,-0.01062946
1.1772,-0.01084625
1.1774,-0.01225121
1.1776,-0.01445832
1.1778,-0.01587623
1.178,-0.01793755
1.1782,-0.01881015
1.1784,-0.0195359
1.1786,-0.01975147
1.1788,-0.02183749
1.179,-0.02315698
1.1792,-0.02340898
1.1794,-0.02380684
1.1796,-0.02528266
1.1798,-0.02620967
1.18,-0.02722625
1.1802,-0.02934858
1.1804,-0.028676
1.1806,-0.02874995
1.1808,-0.03010874
1.181,-0.03202964
1.1812,-0.03375092
1.1814,-0.03451011
1.1816,-0.03553039
1.1818,-0.03679352
1.182,-0.03521758
1.1822,-0.03180486
1.1824,-0.02844625
1.1826,-0.02564376
1.1828,-0.02476611
1.183,-0.02466295
1.1832,-0.02464629
1.1834,-0.0242177
1.1836,-0.02315634
1.1838,-0.02209961
1.184,-0.02015662
1.1842,-0.01686421
1.1844,-0.01359629
1.1846,-0.01196352
1.1848,-0.01081254
1.185,-0.01066619
1.1852,-0.00849197
1.1854,-0.006470537
1.1856,-0.004086097
1.1858,-0.001304644
1.186,-0.0007917804
1.1862,0.001228522
1.1864,0.005182717
1.1866,0.007681821
1.1868,0.009667354
1.187,0.01170958
1.1872,0.01199205
1.1874,0.01289818
1.1876,0.01517549
1.1878,0.01859047
1.188,0.02161651
1.1882,0.02310082
1.1884,0.02304185
1.1886,0.02265629
1.1888,0.02311689
1.189,0.02412862
1.1892,0.02359979
1.1894,0.02377548
1.1896,0.02343881
1.1898,0.02527359
1.19,0.02741504
1.1902,0.02815845
1.1904,0.02749838
1.1906,0.02708633
1.1908,0.02851443
1.191,0.02796072
1.1912,0.02713215
1.1914,0.02751836
1.1916,0.02843816
1.1918,0.03025987
1.192,0.02888784
1.1922,0.02693818
1.1924,0.02592409
1.1926,0.02356668
1.1928,0.02073437
1.193,0.01990667
1.1932,0.02031844
1.1934,0.01893289
1.1936,0.01651834
1.1938,0.01572823
1.194,0.01397404
1.1942,0.01138065
1.1944,0.008996404
1.1946,0.007609929
1.1948,0.007676494
1.195,0.007303331
1.1952,0.005424184
1.1954,0.002475325
1.1956,-0.0007507218
1.1958,-0.00198435
1.196,-0.002690181
1.1962,-0.003911712
1.1964,-0.005728553
1.1966,-0.00748173
1.1968,-0.008798537
1.197,-0.01104752
1.1972,-0.01410986
1.1974,-0.01544893
1.1976,-0.01647605
1.1978,-0.01700654
1.198,-0.01667609
1.1982,-0.0171925
1.1984,-0.01845148
1.1986,-0.01942296
1.1988,-0.02015899
1.199,-0.02140377
1.1992,-0.0226241
1.1994,-0.02212331
1.1996,-0.02269324
1.1998,-0.02384567
1.2,-0.02382853
1.2002,-0.02327357
1.2004,-0.02456883
1.2006,-0.02568376
1.2008,-0.02571817
1.201,-0.02584131
1.2012,-0.02603442
1.2014,-0.02586837
1.2016,-0.02701066
1.2018,-0.02561212
1.202,-0.02451832
1.2022,-0.0239302
1.2024,-0.02239955
1.2026,-0.0216089
1.2028,-0.02056048
1.203,-0.02081397
1.2032,-0.01973658
1.2034,-0.01928991
1.2036,-0.01682692
1.2038,-0.01415009
1.204,-0.01272421
1.2042,-0.0107517
1.2044,-0.008336686
1.2046,-0.006893402
1.2048,-0.007272359
1.205,-0.006988482
1.2052,-0.006924281
1.2054,-0.005039865
1.2056,-0.002559253
1.2058,-0.001596908
1.206,0.0004309809
1.2062,0.002339596
1.2064,0.004637105
1.2066,0.005814696
1.2068,0.008788333
1.207,0.01138808
1.2072,0.01190672
1.2074,0.01263927
1.2076,0.01467878
1.2078,0.01655375
1.208,0.01673566
1.2082,0.01687792
1.2084,0.01847322
1.2086,0.02253789
1.2088,0.02346953
1.209,0.02371773
1.2092,0.02460945
1.2094,0.02430162
1.2096,0.02548481
1.2098,0.02580351
1.21,0.02551452
1.2102,0.02608333
1.2104,0.02683708
1.2106,0.02688176
1.2108,0.0272695
1.211,0.02721945
1.2112,0.02697481
1.2114,0.02670601
1.2116,0.02777632
1.2118,0.02748547
1.212,0.02578455
1.2122,0.0237818
1.2124,0.02348752
1.2126,0.02163127
1.2128,0.01977493
1.213,0.02072563
1.2132,0.01994056
1.2134,0.01894125
1.2136,0.01730559
1.2138,0.01479507
1.214,0.01107919
1.2142,0.009045899
1.2144,0.009399943
1.2146,0.008942586
1.2148,0.006665014
1.215,0.004573904
1.2152,0.003788578
1.2154,0.002109837
1.2156,-0.0005531122
1.2158,-0.001872154
1.216,-0.002381944
1.2162,-0.003271538
1.2164,-0.004647109
1.2166,-0.006703597
1.2168,-0.009071358
1.217,-0.01306009
1.2172,-0.01704916
1.2174,-0.01804593
1.2176,-0.0186031
1.2178,-0.02010053
1.218,-0.02047933
1.2182,-0.02200282
1.2184,-0.02331905
1.2186,-0.02324812
1.2188,-0.02251593
1.219,-0.02121286
1.2192,-0.02267741
1.2194,-0.0250446
1.2196,-0.02455808
1.2198,-0.02657001
1.22,-0.02794161
1.2202,-0.02816048
1.2204,-0.02836405
1.2206,-0.026275
1.2208,-0.02623426
1.221,-0.02543245
1.2212,-0.02548683
1.2214,-0.02715412
1.2216,-0.02616627
1.2218,-0.02442979
1.222,-0.02283001
1.2222,-0.02196607
1.2224,-0.02212211
1.2226,-0.02049461
1.2228,-0.01908903
1.223,-0.01818475
1.2232,-0.01719131
1.2234,-0.01571445
1.2236,-0.0142378
1.2238,-0.0121656
1.224,-0.008987582
1.2242,-0.008394562
1.2244,-0.007658747
1.2246,-0.006516214
1.2248,-0.00562701
1.225,-0.005570941
1.2252,-0.004287478
1.2254,-0.0013352
1.2256,0.0009808366
1.2258,0.00368746
1.226,0.004387393
1.2262,0.006359125
1.2264,0.007962514
1.2266,0.01018235
1.2268,0.01246987
1.227,0.01252678
1.2272,0.01429351
1.2274,0.01472446
1.2276,0.01709236
1.2278,0.020031
1.228,0.02013791
1.2282,0.02093694
1.2284,0.02223254
1.2286,0.02425105
1.2288,0.02440869
1.229,0.0231113
1.2292,0.02306813
1.2294,0.02368667
1.2296,0.02408835
1.2298,0.02386913
1.23,0.02508906
1.2302,0.02616939
1.2304,0.02710874
1.2306,0.02559238
1.2308,0.02520949
1.231,0.02491656
1.2312,0.02412822
1.2314,0.02312654
1.2316,0.02304551
1.2318,0.0228637
1.232,0.02289798
1.2322,0.02294476
1.2324,0.02178625
1.2326,0.01978202
1.2328,0.01775778
1.233,0.0180273
1.2332,0.01752216
1.2334,0.01609392
1.2336,0.0159189
1.2338,0.01571896
1.234,0.01308761
1.2342,0.01259769
1.2344,0.01279366
1.2346,0.01099658
1.2348,0.008532755
1.235,0.00565734
1.2352,0.004282399
1.2354,0.003520556
1.2356,0.002622085
1.2358,0.0005690962
1.236,-0.002985059
1.2362,-0.006771483
1.2364,-0.008260544
1.2366,-0.01000412
1.2368,-0.01089127
1.237,-0.01384104
1.2372,-0.01653126
1.2374,-0.01823574
1.2376,-0.01911305
1.2378,-0.01802331
1.238,-0.01796951
1.2382,-0.02042216
1.2384,-0.02300174
1.2386,-0.02515206
1.2388,-0.02673861
1.239,-0.02665812
1.2392,-0.02511064
1.2394,-0.02372953
1.2396,-0.02448278
1.2398,-0.02658074
1.24,-0.02835179
1.2402,-0.02866777
1.2404,-0.02721369
1.2406,-0.02805692
1.2408,-0.02921486
1.241,-0.0293927
1.2412,-0.03008721
1.2414,-0.02935638
1.2416,-0.02909396
1.2418,-0.02897685
1.242,-0.02763581
1.2422,-0.02649229
1.2424,-0.02509787
1.2426,-0.0226636
1.2428,-0.02169864
1.243,-0.02042732
1.2432,-0.01959131
1.2434,-0.01768051
1.2436,-0.01475782
1.2438,-0.0134358
1.244,-0.01232683
1.2442,-0.0104474
1.2444,-0.01015487
1.2446,-0.00801853
1.2448,-0.006647832
1.245,-0.004781341
1.2452,-0.003984386
1.2454,-0.00294733
1.2456,-0.001702959
1.2458,0.001214334
1.246,0.003593376
1.2462,0.004801022
1.2464,0.008267941
1.2466,0.009885409
1.2468,0.01083851
1.247,0.01229495
1.2472,0.01541131
1.2474,0.01722321
1.2476,0.01882813
1.2478,0.0194619
1.248,0.02038803
1.2482,0.02245789
1.2484,0.02457643
1.2486,0.02551669
1.2488,0.02606311
1.249,0.02737074
1.2492,0.02851535
1.2494,0.02890957
1.2496,0.028032
1.2498,0.02851607
1.25,0.02847612
1.2502,0.02703903
1.2504,0.02765692
1.2506,0.02677478
1.2508,0.02635173
1.251,0.02597691
1.2512,0.02481149
1.2514,0.02438654
1.2516,0.02446126
1.2518,0.02479801
1.252,0.02366041
1.2522,0.02349518
1.2524,0.02260839
1.2526,0.02116099
1.2528,0.01944303
1.253,0.01896772
1.2532,0.01831837
1.2534,0.01738608
1.2536,0.01463591
1.2538,0.01269608
1.254,0.0113934
1.2542,0.01050287
1.2544,0.01244272
1.2546,0.0113461
1.2548,0.009620462
1.255,0.007804043
1.2552,0.004738293
1.2554,0.004179643
1.2556,0.002596661
1.2558,-0.000592551
1.256,-0.002805023
1.2562,-0.005408072
1.2564,-0.008164483
1.2566,-0.01044113
1.2568,-0.01327861
1.257,-0.01523629
1.2572,-0.01487192
1.2574,-0.01570555
1.2576,-0.01820421
1.2578,-0.01970177
1.258,-0.02192617
1.2582,-0.02252357
1.2584,-0.02223766
1.2586,-0.02491326
1.2588,-0.02487492
1.259,-0.02325909
1.2592,-0.02328021
1.2594,-0.0222515
1.2596,-0.02187419
1.2598,-0.02220663
1.26,-0.02415022
1.2602,-0.02451989
1.2604,-0.02477664
1.2606,-0.02628719
1.2608,-0.02541
1.261,-0.02652449
1.2612,-0.02614601
1.2614,-0.02541014
1.2616,-0.02493969
1.2618,-0.0242356
1.262,-0.02432827
1.2622,-0.02354647
1.2624,-0.02194269
1.2626,-0.02101647
1.2628,-0.01888297
1.263,-0.01699649
1.2632,-0.01649759
1.2634,-0.0158103
1.2636,-0.01511826
1.2638,-0.01349656
1.264,-0.01085904
1.2642,-0.009770363
1.2644,-0.00928928
1.2646,-0.005843959
1.2648,-0.005084754
1.265,-0.004627065
1.2652,-0.004350058
1.2654,-0.003570316
1.2656,-0.001534083
1.2658,0.001159047
1.266,0.004288173
1.2662,0.007103008
1.2664,0.008087503
1.2666,0.008306236
1.2668,0.007325616
1.267,0.007946766
1.2672,0.01158343
1.2674,0.01251851
1.2676,0.01263959
1.2678,0.01268258
1.268,0.01422181
1.2682,0.01812654
1.2684,0.02192657
1.2686,0.02262856
1.2688,0.02365891
1.269,0.02476415
1.2692,0.02488122
1.2694,0.02596344
1.2696,0.02668262
1.2698,0.02603607
1.27,0.0255455
1.2702,0.02639388
1.2704,0.02557309
1.2706,0.02563385
1.2708,0.02621742
1.271,0.02680477
1.2712,0.02592376
1.2714,0.02460981
1.2716,0.02505854
1.2718,0.02483038
1.272,0.02587416
1.2722,0.02585859
1.2724,0.0239479
1.2726,0.02156756
1.2728,0.02140971
1.273,0.02137931
1.2732,0.01992232
1.2734,0.01885942
1.2736,0.01645755
1.2738,0.01396715
1.274,0.01150957
1.2742,0.01024983
1.2744,0.009462173
1.2746,0.007548342
1.2748,0.006679312
1.275,0.005177844
1.2752,0.004402976
1.2754,0.002386024
1.2756,0.0009347986
1.2758,-0.0004226308
1.276,-0.00383354
1.2762,-0.00488286
1.2764,-0.005526602
1.2766,-0.006077696
1.2768,-0.008131339
1.277,-0.009494253
1.2772,-0.01037461
1.2774,-0.01331269
1.2776,-0.01443701
1.2778,-0.01631282
1.278,-0.01786739
1.2782,-0.01862185
1.2784,-0.01786201
1.2786,-0.01730662
1.2788,-0.01890746
1.279,-0.02021196
1.2792,-0.02187962
1.2794,-0.0236024
1.2796,-0.0252612
1.2798,-0.02615853
1.28,-0.02557931
1.2802,-0.02505983
1.2804,-0.02285471
1.2806,-0.02355363
1.2808,-0.02433291
1.281,-0.02371712
1.2812,-0.02470417
1.2814,-0.02523695
1.2816,-0.02540998
1.2818,-0.02533603
1.282,-0.02535473
1.2822,-0.02587955
1.2824,-0.02455381
1.2826,-0.02224149
1.2828,-0.02064478
1.283,-0.01910552
1.2832,-0.01764921
1.2834,-0.01644541
1.2836,-0.01590065
1.2838,-0.0161307
1.284,-0.0156107
1.2842,-0.01405013
1.2844,-0.01244325
1.2846,-0.01066611
1.2848,-0.00892268
1.285,-0.006134146
1.2852,-0.005454441
1.2854,-0.00534483
1.2856,-0.004145275
1.2858,-0.002018665
1.286,0.001012063
1.2862,0.003030648
1.2864,0.003988207
1.2866,0.005452948
1.2868,0.007366973
1.287,0.009495299
1.2872,0.01195655
1.2874,0.01365378
1.2876,0.01546784
1.2878,0.01645702
1.288,0.01752562
1.2882,0.01910912
1.2884,0.02070052
1.2886,0.02083614
1.2888,0.02012604
1.289,0.02184807
1.2892,0.02392239
1.2894,0.02356752
1.2896,0.02138899
1.2898,0.02028164
1.29,0.02174155
1.2902,0.0236868
1.2904,0.02311831
1.2906,0.02269067
1.2908,0.02325042
1.291,0.02292363
1.2912,0.0228644
1.2914,0.02338621
1.2916,0.02465288
1.2918,0.02614984
1.292,0.02565218
1.2922,0.0255176
1.2924,0.02311092
1.2926,0.02096483
1.2928,0.01967709
1.293,0.01934437
1.2932,0.01954853
1.2934,0.01858101
1.2936,0.01658447
1.2938,0.01569307
1.294,0.01534273
1.2942,0.01438803
1.2944,0.01377955
1.2946,0.01241536
1.2948,0.009870065
1.295,0.008373324
1.2952,0.005295492
1.2954,0.003446843
1.2956,0.004705203
1.2958,0.00396165
1.296,0.001092815
1.2962,-0.001348406
1.2964,-0.005068759
1.2966,-0.006609499
1.2968,-0.008163661
1.297,-0.009210161
1.2972,-0.01273147
1.2974,-0.01611494
1.2976,-0.01592676
1.2978,-0.01633918
1.298,-0.01639135
1.2982,-0.01728931
1.2984,-0.01815902
1.2986,-0.02054084
1.2988,-0.02173323
1.299,-0.02194891
1.2992,-0.02165953
1.2994,-0.02231311
1.2996,-0.02443893
1.2998,-0.02573324
1.3,-0.02593223
1.3002,-0.02565645
1.3004,-0.02640971
1.3006,-0.02840303
1.3008,-0.02950512
1.301,-0.02834078
1.3012,-0.02579491
1.3014,-0.0250661
1.3016,-0.0242793
1.3018,-0.02393516
1.302,-0.02345301
1.3022,-0.02282887
1.3024,-0.02092282
