time_s,voltage_v
0.0,-0.0239903
0.0002,-0.02352128
0.0004,-0.02176956
0.0006,-0.01945541
0.0008,-0.01688076
0.001,-0.01475336
0.0012,-0.01310677
0.0014,-0.01324918
0.0016,-0.01284242
0.0018,-0.01040185
0.002,-0.008420465
0.0022,-0.007502866
0.0024,-0.004159667
0.0026,-0.00124604
0.0028,0.002387666
0.003,0.004894011
0.0032,0.006969164
0.0034,0.009989547
0.0036,0.01257976
0.0038,0.01518537
0.004,0.01775142
0.0042,0.02074277
0.0044,0.02438496
0.0046,0.02536182
0.0048,0.02624977
0.005,0.02688573
0.0052,0.02960273
0.0054,0.03199841
0.0056,0.03194706
0.0058,0.03318657
0.006,0.03355421
0.0062,0.03404616
0.0064,0.03505513
0.0066,0.035665
0.0068,0.03687359
0.007,0.03852323
0.0072,0.03889852
0.0074,0.03883045
0.0076,0.03805972
0.0078,0.03800059
0.008,0.03819967
0.0082,0.0384772
0.0084,0.0365354
0.0086,0.03480823
0.0088,0.03477336
0.009,0.03248469
0.0092,0.03116576
0.0094,0.0305173
0.0096,0.02909746
0.0098,0.02642742
0.01,0.02552048
0.0102,0.02374984
0.0104,0.02112534
0.0106,0.01929147
0.0108,0.01630593
0.011,0.0140126
0.0112,0.01168324
0.0114,0.01108685
0.0116,0.00935802
0.0118,0.007002461
0.012,0.006329983
0.0122,0.003306408
0.0124,0.000116946
0.0126,-0.00142463
0.0128,-0.005155934
0.013,-0.008188601
0.0132,-0.01064134
0.0134,-0.01325017
0.0136,-0.01620798
0.0138,-0.01890626
0.014,-0.0206499
0.0142,-0.02189283
0.0144,-0.02466939
0.0146,-0.02786429
0.0148,-0.03080198
0.015,-0.0313136
0.0152,-0.03098528
0.0154,-0.03265458
0.0156,-0.03451043
0.0158,-0.0342523
0.016,-0.03390937
0.0162,-0.03237994
0.0164,-0.03282727
0.0166,-0.03403508
0.0168,-0.03560837
0.017,-0.0383709
0.0172,-0.03787678
0.0174,-0.03706938
0.0176,-0.03697055
0.0178,-0.03819471
0.018,-0.03945135
0.0182,-0.03691145
0.0184,-0.0343774
0.0186,-0.03444138
0.0188,-0.03448865
0.019,-0.03388973
0.0192,-0.0318368
0.0194,-0.02903635
0.0196,-0.02774952
0.0198,-0.02501334
0.02,-0.02293906
0.0202,-0.01999141
0.0204,-0.01846665
0.0206,-0.01613203
0.0208,-0.01347965
0.021,-0.01150059
0.0212,-0.009471864
0.0214,-0.008121192
0.0216,-0.006628965
0.0218,-0.005976601
0.022,-0.004348569
0.0222,-0.001699082
0.0224,0.0004553272
0.0226,0.001389181
0.0228,0.004852117
0.023,0.008616119
0.0232,0.01098052
0.0234,0.01392545
0.0236,0.01500221
0.0238,0.01664258
0.024,0.01836362
0.0242,0.02068087
0.0244,0.02303758
0.0246,0.0244374
0.0248,0.02521807
0.025,0.02522643
0.0252,0.02623221
0.0254,0.0291492
0.0256,0.03169404
0.0258,0.03264416
0.026,0.03278269
0.0262,0.03480684
0.0264,0.03607834
0.0266,0.03658598
0.0268,0.03721955
0.027,0.03703574
0.0272,0.03690517
0.0274,0.03764885
0.0276,0.03922141
0.0278,0.03992995
0.028,0.03965551
0.0282,0.03900813
0.0284,0.03739732
0.0286,0.0371653
0.0288,0.03729665
0.029,0.03520701
0.0292,0.03477977
0.0294,0.03318434
0.0296,0.02847793
0.0298,0.02480711
0.03,0.02258488
0.0302,0.02214023
0.0304,0.02111898
0.0306,0.01836334
0.0308,0.01469641
0.031,0.01011143
0.0312,0.007777098
0.0314,0.00708089
0.0316,0.004763553
0.0318,0.003419289
0.032,0.003201668
0.0322,0.0005051243
0.0324,-0.002883989
0.0326,-0.004923757
0.0328,-0.00687919
0.033,-0.007727558
0.0332,-0.009983672
0.0334,-0.01254494
0.0336,-0.01454517
0.0338,-0.01646978
0.034,-0.01798069
0.0342,-0.02011438
0.0344,-0.02265629
0.0346,-0.02515362
0.0348,-0.02677769
0.035,-0.0277814
0.0352,-0.0292774
0.0354,-0.03306029
0.0356,-0.03287775
0.0358,-0.0323299
0.036,-0.03299849
0.0362,-0.03277106
0.0364,-0.03208309
0.0366,-0.03314248
0.0368,-0.03468146
0.037,-0.03613119
0.0372,-0.03739373
0.0374,-0.0383838
0.0376,-0.03729749
0.0378,-0.03622584
0.038,-0.03537739
0.0382,-0.03443504
0.0384,-0.03379397
0.0386,-0.03527775
0.0388,-0.03459264
0.039,-0.03308991
0.0392,-0.03297268
0.0394,-0.03137347
0.0396,-0.02875348
0.0398,-0.02537258
0.04,-0.02339318
0.0402,-0.02120163
0.0404,-0.0182914
0.0406,-0.01554358
0.0408,-0.01326495
0.041,-0.01036925
0.0412,-0.007784759
0.0414,-0.006155129
0.0416,-0.005120306
0.0418,-0.004191796
0.042,-0.00335595
0.0422,-0.001815371
0.0424,0.0008492364
0.0426,0.004024264
0.0428,0.006552306
0.043,0.009803416
0.0432,0.01320811
0.0434,0.01625464
0.0436,0.01716379
0.0438,0.01828529
0.044,0.02132208
0.0442,0.02322276
0.0444,0.02535327
0.0446,0.02683873
0.0448,0.02776039
0.045,0.02726185
0.0452,0.02937763
0.0454,0.03213005
0.0456,0.03364917
0.0458,0.03495993
0.046,0.03491588
0.0462,0.03631308
0.0464,0.03714176
0.0466,0.0361667
0.0468,0.03580353
0.047,0.03735511
0.0472,0.03702899
0.0474,0.03850975
0.0476,0.03786111
0.0478,0.03546305
0.048,0.0342769
0.0482,0.03496974
0.0484,0.03626908
0.0486,0.03620595
0.0488,0.03521073
0.049,0.03341449
0.0492,0.0312429
0.0494,0.02984139
0.0496,0.02918434
0.0498,0.02710712
0.05,0.02437763
0.0502,0.02339437
0.0504,0.02019833
0.0506,0.01743692
0.0508,0.01505317
0.051,0.01345752
0.0512,0.01163453
0.0514,0.009057198
0.0516,0.007602548
0.0518,0.005392464
0.052,0.002752584
0.0522,0.001816241
0.0524,-0.0009243195
0.0526,-0.004165713
0.0528,-0.007400923
0.053,-0.009223384
0.0532,-0.01008755
0.0534,-0.01233215
0.0536,-0.0149361
0.0538,-0.01993288
0.054,-0.02223722
0.0542,-0.02411723
0.0544,-0.02610671
0.0546,-0.02781442
0.0548,-0.02922593
0.055,-0.03070584
0.0552,-0.0310685
0.0554,-0.03206438
0.0556,-0.03495403
0.0558,-0.03551888
0.056,-0.03588548
0.0562,-0.03536363
0.0564,-0.03629807
0.0566,-0.03890223
0.0568,-0.03875685
0.057,-0.03698886
0.0572,-0.03489483
0.0574,-0.03541292
0.0576,-0.03674512
0.0578,-0.03826447
0.058,-0.03759757
0.0582,-0.03714441
0.0584,-0.0380574
0.0586,-0.03746159
0.0588,-0.03532215
0.059,-0.0330605
0.0592,-0.03226247
0.0594,-0.03093307
0.0596,-0.02810559
0.0598,-0.02631067
0.06,-0.0255883
0.0602,-0.0230857
0.0604,-0.0187267
0.0606,-0.01646436
0.0608,-0.0152503
0.061,-0.0126826
0.0612,-0.009850083
0.0614,-0.009843778
0.0616,-0.009416579
0.0618,-0.00830661
0.062,-0.006001399
0.0622,-0.002688422
0.0624,-0.0001644522
0.0626,0.00267252
0.0628,0.005818683
0.063,0.009681106
0.0632,0.01424409
0.0634,0.01769209
0.0636,0.01829619
0.0638,0.0209076
0.064,0.0246413
0.0642,0.02675224
0.0644,0.02757205
0.0646,0.02850358
0.0648,0.02954946
0.065,0.03126861
0.0652,0.03343912
0.0654,0.03431486
0.0656,0.03565819
0.0658,0.03724586
0.066,0.03895039
0.0662,0.03925216
0.0664,0.04133419
0.0666,0.04195081
0.0668,0.04033361
0.067,0.03942342
0.0672,0.03879787
0.0674,0.03835336
0.0676,0.03866976
0.0678,0.03934486
0.068,0.03901123
0.0682,0.0393557
0.0684,0.0395177
0.0686,0.03794154
0.0688,0.03626251
0.069,0.03450498
0.0692,0.03146425
0.0694,0.02922015
0.0696,0.02710308
0.0698,0.0240191
0.07,0.02279894
0.0702,0.02141073
0.0704,0.01910048
0.0706,0.01748112
0.0708,0.01615224
0.071,0.01308765
0.0712,0.01056875
0.0714,0.01026747
0.0716,0.008228171
0.0718,0.006148275
0.072,0.004199578
0.0722,0.001487709
0.0724,-0.001637664
0.0726,-0.004008071
0.0728,-0.007658281
0.073,-0.01136267
0.0732,-0.0138903
0.0734,-0.01561294
0.0736,-0.01760383
0.0738,-0.0198576
0.074,-0.02148998
0.0742,-0.02378098
0.0744,-0.02530952
0.0746,-0.02760579
0.0748,-0.02833141
0.075,-0.02925134
0.0752,-0.03060485
0.0754,-0.03117814
0.0756,-0.03173609
0.0758,-0.03276628
0.076,-0.03444638
0.0762,-0.03608631
0.0764,-0.03687003
0.0766,-0.03737795
0.0768,-0.03543672
0.077,-0.0350674
0.0772,-0.03483521
0.0774,-0.03439357
0.0776,-0.0332211
0.0778,-0.03278807
0.078,-0.03193644
0.0782,-0.03054869
0.0784,-0.03015377
0.0786,-0.02929811
0.0788,-0.02916855
0.079,-0.02814812
0.0792,-0.02769866
0.0794,-0.02567876
0.0796,-0.0236856
0.0798,-0.02257347
0.08,-0.02198475
0.0802,-0.02067983
0.0804,-0.01886552
0.0806,-0.01633078
0.0808,-0.01372483
0.081,-0.01178804
0.0812,-0.009547882
0.0814,-0.007491808
0.0816,-0.00500798
0.0818,-0.00284518
0.082,-0.001258985
0.0822,0.0006752095
0.0824,0.00326736
0.0826,0.005776765
0.0828,0.007831824
0.083,0.009172999
0.0832,0.011312
0.0834,0.01238036
0.0836,0.01455999
0.0838,0.01793055
0.084,0.02045148
0.0842,0.02251951
0.0844,0.02320768
0.0846,0.02446672
0.0848,0.02549134
0.085,0.02609879
0.0852,0.02818189
0.0854,0.02839672
0.0856,0.02878563
0.0858,0.02898871
0.086,0.02905259
0.0862,0.02984206
0.0864,0.03145536
0.0866,0.03246254
0.0868,0.03296494
0.087,0.03193218
0.0872,0.03036528
0.0874,0.02927007
0.0876,0.02853202
0.0878,0.02958061
0.088,0.0302819
0.0882,0.03055477
0.0884,0.03083313
0.0886,0.03131824
0.0888,0.03037907
0.089,0.02738878
0.0892,0.02673496
0.0894,0.02624619
0.0896,0.02559123
0.0898,0.02442664
0.09,0.02304868
0.0902,0.0211714
0.0904,0.01942647
0.0906,0.01743898
0.0908,0.01664652
0.091,0.01690125
0.0912,0.01429028
0.0914,0.01115983
0.0916,0.008860716
0.0918,0.006942276
0.092,0.005449516
0.0922,0.002994629
0.0924,0.001864208
0.0926,-0.001045516
0.0928,-0.004093802
0.093,-0.006519086
0.0932,-0.007841644
0.0934,-0.009843049
0.0936,-0.01271563
0.0938,-0.01658335
0.094,-0.01999237
0.0942,-0.0211927
0.0944,-0.02342605
0.0946,-0.02523142
0.0948,-0.02567631
0.095,-0.02683179
0.0952,-0.02801561
0.0954,-0.02858824
0.0956,-0.03117049
0.0958,-0.03168759
0.096,-0.03301842
0.0962,-0.03539001
0.0964,-0.03757142
0.0966,-0.03862339
0.0968,-0.03646386
0.097,-0.03640783
0.0972,-0.0374109
0.0974,-0.03752857
0.0976,-0.03689712
0.0978,-0.03751659
0.098,-0.03702564
0.0982,-0.03636583
0.0984,-0.03603123
0.0986,-0.03502946
0.0988,-0.03560377
0.099,-0.03549216
0.0992,-0.03441947
0.0994,-0.03286524
0.0996,-0.02981045
0.0998,-0.02718442
0.1,-0.02612198
0.1002,-0.02329264
0.1004,-0.0210216
0.1006,-0.01839267
0.1008,-0.01592026
0.101,-0.01436666
0.1012,-0.01231307
0.1014,-0.01107643
0.1016,-0.009486039
0.1018,-0.008203143
0.102,-0.004906108
0.1022,-0.003754647
0.1024,-0.001522843
0.1026,0.001535324
0.1028,0.004358088
0.103,0.009400668
0.1032,0.01208121
0.1034,0.01268639
0.1036,0.01304077
0.1038,0.01584837
0.104,0.01984973
0.1042,0.0219552
0.1044,0.02398682
0.1046,0.02431625
0.1048,0.02619693
0.105,0.02814735
0.1052,0.02916269
0.1054,0.03098619
0.1056,0.0314991
0.1058,0.0330447
0.106,0.03336388
0.1062,0.03374438
0.1064,0.03546082
0.1066,0.03859776
0.1068,0.03753771
0.107,0.0377977
0.1072,0.03707613
0.1074,0.03644662
0.1076,0.03673862
0.1078,0.03661936
0.108,0.03605293
0.1082,0.03609568
0.1084,0.03667592
0.1086,0.03565656
0.1088,0.03382938
0.109,0.0307343
0.1092,0.02839638
0.1094,0.02844906
0.1096,0.02752686
0.1098,0.02702635
0.11,0.02605816
0.1102,0.02382526
0.1104,0.02254907
0.1106,0.02063283
0.1108,0.01755364
0.111,0.01556709
0.1112,0.01246756
0.1114,0.009232924
0.1116,0.006956114
0.1118,0.006868067
0.112,0.005712945
0.1122,0.00338558
0.1124,0.001601232
0.1126,-0.0004534962
0.1128,-0.003164881
0.113,-0.005751536
0.1132,-0.007865983
0.1134,-0.01069251
0.1136,-0.01284927
0.1138,-0.01526575
0.114,-0.01820078
0.1142,-0.02297006
0.1144,-0.02742614
0.1146,-0.02884069
0.1148,-0.02988733
0.115,-0.03170907
0.1152,-0.03239747
0.1154,-0.03254758
0.1156,-0.03355654
0.1158,-0.03356919
0.116,-0.03398151
0.1162,-0.03479973
0.1164,-0.03588722
0.1166,-0.03633959
0.1168,-0.03695238
0.117,-0.03831044
0.1172,-0.03906798
0.1174,-0.03886148
0.1176,-0.03792066
0.1178,-0.03686317
0.118,-0.03568172
0.1182,-0.03557213
0.1184,-0.03586603
0.1186,-0.03663846
0.1188,-0.03613853
0.119,-0.03292057
0.1192,-0.03104656
0.1194,-0.02977371
0.1196,-0.02742286
0.1198,-0.02547482
0.12,-0.02400631
0.1202,-0.0204949
0.1204,-0.01840261
0.1206,-0.01606124
0.1208,-0.01309874
0.121,-0.01048306
0.1212,-0.00841275
0.1214,-0.008442352
0.1216,-0.006790773
0.1218,-0.00519068
0.122,-0.002518957
0.1222,-0.0004584579
0.1224,0.001978122
0.1226,0.003853116
0.1228,0.006917398
0.123,0.01002724
0.1232,0.01282356
0.1234,0.01359461
0.1236,0.01535245
0.1238,0.01775426
0.124,0.01928405
0.1242,0.02165647
0.1244,0.02277454
0.1246,0.02518044
0.1248,0.02660909
0.125,0.02841854
0.1252,0.02872186
0.1254,0.02958823
0.1256,0.03052087
0.1258,0.0295486
0.126,0.03104413
0.1262,0.03109274
0.1264,0.03076177
0.1266,0.03261596
0.1268,0.035411
0.127,0.03738994
0.1272,0.03814763
0.1274,0.03761112
0.1276,0.03634158
0.1278,0.03659929
0.128,0.03508426
0.1282,0.03327879
0.1284,0.03381002
0.1286,0.03439897
0.1288,0.03394478
0.129,0.03326066
0.1292,0.03144214
0.1294,0.02883879
0.1296,0.02706605
0.1298,0.0245792
0.13,0.02231111
0.1302,0.02144446
0.1304,0.01901806
0.1306,0.01669928
0.1308,0.01557591
0.131,0.01291818
0.1312,0.01018813
0.1314,0.007240689
0.1316,0.003628217
0.1318,0.002747007
0.132,0.0007558308
0.1322,-0.002384846
0.1324,-0.005569543
0.1326,-0.009728872
0.1328,-0.01227091
0.133,-0.01315482
0.1332,-0.01507484
0.1334,-0.01731304
0.1336,-0.01980865
0.1338,-0.02177448
0.134,-0.02475549
0.1342,-0.02692495
0.1344,-0.02874754
0.1346,-0.03024816
0.1348,-0.03006184
0.135,-0.03023287
0.1352,-0.03252318
0.1354,-0.03445434
0.1356,-0.03489899
0.1358,-0.03573373
0.136,-0.03392575
0.1362,-0.03447425
0.1364,-0.03528434
0.1366,-0.03442502
0.1368,-0.03523641
0.137,-0.03596614
0.1372,-0.03513606
0.1374,-0.03450825
0.1376,-0.03426393
0.1378,-0.03430326
0.138,-0.03258925
0.1382,-0.03271922
0.1384,-0.03317922
0.1386,-0.03169395
0.1388,-0.03114162
0.139,-0.03172843
0.1392,-0.02776823
0.1394,-0.02564304
0.1396,-0.02607721
0.1398,-0.02701212
0.14,-0.02755202
0.1402,-0.02597591
0.1404,-0.02162542
0.1406,-0.01805184
0.1408,-0.01493796
0.141,-0.01213762
0.1412,-0.01112212
0.1414,-0.008403582
0.1416,-0.006048722
0.1418,-0.004118012
0.142,-0.002787713
0.1422,-0.001077958
0.1424,0.0008095973
0.1426,0.004300454
0.1428,0.006954309
0.143,0.009502498
0.1432,0.01291001
0.1434,0.01652471
0.1436,0.01970805
0.1438,0.02199964
0.144,0.02579394
0.1442,0.0275397
0.1444,0.02783609
0.1446,0.02880816
0.1448,0.03009582
0.145,0.03058624
0.1452,0.03296028
0.1454,0.03475377
0.1456,0.03635568
0.1458,0.0381805
0.146,0.03939773
0.1462,0.03973001
0.1464,0.03945845
0.1466,0.03982818
0.1468,0.04101987
0.147,0.04243727
0.1472,0.04211555
0.1474,0.04229406
0.1476,0.04146575
0.1478,0.04116136
0.148,0.04026592
0.1482,0.0391591
0.1484,0.038204
0.1486,0.03692872
0.1488,0.03537363
0.149,0.03472703
0.1492,0.03382887
0.1494,0.03027463
0.1496,0.02731058
0.1498,0.02474941
0.15,0.02318061
0.1502,0.0205988
0.1504,0.01692226
0.1506,0.01460931
0.1508,0.01007053
0.151,0.007044689
0.1512,0.006134908
0.1514,0.005105142
0.1516,0.003562524
0.1518,0.002409819
0.152,0.00277228
0.1522,0.001967985
0.1524,0.0007804839
0.1526,-0.001463128
0.1528,-0.005406793
0.153,-0.009112785
0.1532,-0.01210355
0.1534,-0.01458394
0.1536,-0.01508956
0.1538,-0.01788408
0.154,-0.02273818
0.1542,-0.02593964
0.1544,-0.02853509
0.1546,-0.03010657
0.1548,-0.03282915
0.155,-0.03478491
0.1552,-0.03506081
0.1554,-0.03563022
0.1556,-0.03676634
0.1558,-0.03837933
0.156,-0.04052677
0.1562,-0.04116763
0.1564,-0.0416019
0.1566,-0.04211872
0.1568,-0.04059089
0.157,-0.04042129
0.1572,-0.04028473
0.1574,-0.03867182
0.1576,-0.0390589
0.1578,-0.03692852
0.158,-0.03485003
0.1582,-0.03309675
0.1584,-0.0318996
0.1586,-0.03199417
0.1588,-0.03152058
0.159,-0.03023611
0.1592,-0.02860368
0.1594,-0.02665392
0.1596,-0.02537717
0.1598,-0.023739
0.16,-0.02166868
0.1602,-0.0196302
0.1604,-0.01691458
0.1606,-0.01506767
0.1608,-0.01280252
0.161,-0.01031995
0.1612,-0.007799575
0.1614,-0.005725548
0.1616,-0.004996283
0.1618,-0.004107352
0.162,-0.002645742
0.1622,-0.0001656361
0.1624,0.00170987
0.1626,0.001416552
0.1628,0.004959268
0.163,0.009204911
0.1632,0.01267857
0.1634,0.01380968
0.1636,0.01596995
0.1638,0.01842132
0.164,0.01947324
0.1642,0.02033428
0.1644,0.02135778
0.1646,0.02296231
0.1648,0.02516384
0.165,0.02711006
0.1652,0.02959867
0.1654,0.03140678
0.1656,0.03385594
0.1658,0.03485887
0.166,0.03363334
0.1662,0.03274158
0.1664,0.03345398
0.1666,0.03566856
0.1668,0.03639828
0.167,0.03630702
0.1672,0.0372258
0.1674,0.03721786
0.1676,0.03694958
0.1678,0.03609389
0.168,0.03598537
0.1682,0.03578486
0.1684,0.03466418
0.1686,0.0328581
0.1688,0.03209502
0.169,0.03065105
0.1692,0.02942478
0.1694,0.02888062
0.1696,0.02651665
0.1698,0.02479645
0.17,0.02269316
0.1702,0.02004909
0.1704,0.01829833
0.1706,0.01800947
0.1708,0.0165268
0.171,0.01386112
0.1712,0.01272289
0.1714,0.01113155
0.1716,0.008399259
0.1718,0.00683692
0.172,0.005361784
0.1722,0.003477162
0.1724,0.0002951826
0.1726,-0.001777631
0.1728,-0.005112753
0.173,-0.009670301
0.1732,-0.01449582
0.1734,-0.01878056
0.1736,-0.02141322
0.1738,-0.02318643
0.174,-0.02457944
0.1742,-0.02711333
0.1744,-0.0280078
0.1746,-0.02876529
0.1748,-0.02876812
0.175,-0.02914154
0.1752,-0.02899635
0.1754,-0.02946557
0.1756,-0.0300953
0.1758,-0.03146179
0.176,-0.03286447
0.1762,-0.03428835
0.1764,-0.03544195
0.1766,-0.03547306
0.1768,-0.03530572
0.177,-0.03496958
0.1772,-0.03474947
0.1774,-0.03460911
0.1776,-0.03385667
0.1778,-0.0335907
0.178,-0.03286256
0.1782,-0.03270511
0.1784,-0.03340844
0.1786,-0.03335378
0.1788,-0.0311782
0.179,-0.0286841
0.1792,-0.02687511
0.1794,-0.02531717
0.1796,-0.02479417
0.1798,-0.02339494
0.18,-0.02224608
0.1802,-0.01953568
0.1804,-0.01790141
0.1806,-0.01514104
0.1808,-0.01236571
0.181,-0.01065492
0.1812,-0.00773206
0.1814,-0.00548462
0.1816,-0.004612586
0.1818,-0.003125694
0.182,-0.0007849858
0.1822,0.0009625918
0.1824,0.004212413
0.1826,0.005421847
0.1828,0.006997566
0.183,0.01031418
0.1832,0.01260512
0.1834,0.01411641
0.1836,0.01643595
0.1838,0.01863401
0.184,0.01991048
0.1842,0.02234948
0.1844,0.0254401
0.1846,0.02841724
0.1848,0.03067272
0.185,0.03101266
0.1852,0.03082683
0.1854,0.03104798
0.1856,0.03189762
0.1858,0.03212915
0.186,0.03343489
0.1862,0.03378269
0.1864,0.03376839
0.1866,0.0340086
0.1868,0.03470457
0.187,0.03678218
0.1872,0.0372577
0.1874,0.03542899
0.1876,0.03486721
0.1878,0.0354075
0.188,0.03529993
0.1882,0.03412049
0.1884,0.03257046
0.1886,0.03202575
0.1888,0.03134768
0.189,0.02979233
0.1892,0.02850305
0.1894,0.02798415
0.1896,0.02858455
0.1898,0.02723705
0.19,0.02501777
0.1902,0.02150782
0.1904,0.01829093
0.1906,0.01610159
0.1908,0.01365869
0.191,0.01099638
0.1912,0.009089805
0.1914,0.008293526
0.1916,0.005060136
0.1918,0.003204823
0.192,0.002615937
0.1922,0.002847731
0.1924,0.0007607662
0.1926,-0.003612266
0.1928,-0.005270046
0.193,-0.007453888
0.1932,-0.01006745
0.1934,-0.01249497
0.1936,-0.0142458
0.1938,-0.01656991
0.194,-0.02052431
0.1942,-0.02363371
0.1944,-0.02502497
0.1946,-0.02693009
0.1948,-0.0286943
0.195,-0.02888673
0.1952,-0.03146735
0.1954,-0.03261949
0.1956,-0.03351099
0.1958,-0.03576112
0.196,-0.03728043
0.1962,-0.03650574
0.1964,-0.03705731
0.1966,-0.0378057
0.1968,-0.03663608
0.197,-0.03576025
0.1972,-0.03498941
0.1974,-0.03470122
0.1976,-0.03421712
0.1978,-0.03403567
0.198,-0.03361346
0.1982,-0.03345901
0.1984,-0.03352406
0.1986,-0.03307214
0.1988,-0.03243309
0.199,-0.03025837
0.1992,-0.02875069
0.1994,-0.02566599
0.1996,-0.02488043
0.1998,-0.02477769
0.2,-0.02349275
0.2002,-0.02164219
0.2004,-0.0179465
0.2006,-0.01590997
0.2008,-0.01281457
0.201,-0.008124296
0.2012,-0.006027762
0.2014,-0.004066597
0.2016,-0.001563837
0.2018,0.0008853041
0.202,0.0009672585
0.2022,0.001775772
0.2024,0.004142751
0.2026,0.006170082
0.2028,0.008709397
0.203,0.009181938
0.2032,0.0114953
0.2034,0.01472106
0.2036,0.01614879
0.2038,0.01845086
0.204,0.02121443
0.2042,0.02145867
0.2044,0.02328555
0.2046,0.02512185
0.2048,0.02673499
0.205,0.02794829
0.2052,0.03012579
0.2054,0.03189934
0.2056,0.03115325
0.2058,0.03169571
0.206,0.02993132
0.2062,0.03037135
0.2064,0.03204101
0.2066,0.03344052
0.2068,0.03385089
0.207,0.03428622
0.2072,0.03561555
0.2074,0.03573755
0.2076,0.03707625
0.2078,0.03703944
0.208,0.03596606
0.2082,0.03496639
0.2084,0.03528718
0.2086,0.03483647
0.2088,0.03614945
0.209,0.03571489
0.2092,0.03348152
0.2094,0.03116553
0.2096,0.02928383
0.2098,0.02696686
0.21,0.02290506
0.2102,0.02199609
0.2104,0.01949582
0.2106,0.01631795
0.2108,0.01439272
0.211,0.01184208
0.2112,0.008416146
0.2114,0.005898627
0.2116,0.004586632
0.2118,0.004084746
0.212,0.001880447
0.2122,0.0005159754
0.2124,-0.003383338
0.2126,-0.006090786
0.2128,-0.008809647
0.213,-0.0104013
0.2132,-0.01142073
0.2134,-0.01445848
0.2136,-0.01685033
0.2138,-0.02055122
0.214,-0.0215273
0.2142,-0.02334346
0.2144,-0.02600623
0.2146,-0.027255
0.2148,-0.02822153
0.215,-0.02969608
0.2152,-0.03073472
0.2154,-0.03164539
0.2156,-0.03437203
0.2158,-0.03640409
0.216,-0.03693777
0.2162,-0.03649049
0.2164,-0.03475315
0.2166,-0.03354215
0.2168,-0.03347592
0.217,-0.03465821
0.2172,-0.03446098
0.2174,-0.03397746
0.2176,-0.03404724
0.2178,-0.03372831
0.218,-0.03232847
0.2182,-0.03086839
0.2184,-0.03005155
0.2186,-0.03010704
0.2188,-0.03005221
0.219,-0.02973025
0.2192,-0.02983825
0.2194,-0.02849296
0.2196,-0.0263496
0.2198,-0.02485491
0.22,-0.02375503
0.2202,-0.02114275
0.2204,-0.01862501
0.2206,-0.01740911
0.2208,-0.01385108
0.221,-0.01187439
0.2212,-0.009725821
0.2214,-0.006980877
0.2216,-0.006110032
0.2218,-0.004896876
0.222,-0.002430712
0.2222,-0.0005928815
0.2224,0.001480571
0.2226,0.003702336
0.2228,0.006344978
0.223,0.009291706
0.2232,0.01161294
0.2234,0.0137506
0.2236,0.01703639
0.2238,0.02056046
0.224,0.02219776
0.2242,0.0229441
0.2244,0.0246634
0.2246,0.0270998
0.2248,0.02893861
0.225,0.02858606
0.2252,0.02906042
0.2254,0.02908985
0.2256,0.02947642
0.2258,0.030882
0.226,0.03165949
0.2262,0.03106954
0.2264,0.03082501
0.2266,0.03179683
0.2268,0.03250977
0.227,0.03280283
0.2272,0.03224935
0.2274,0.03167671
0.2276,0.03144987
0.2278,0.03096526
0.228,0.02960456
0.2282,0.03070497
0.2284,0.03091497
0.2286,0.02990543
0.2288,0.02865712
0.229,0.02711502
0.2292,0.02469447
0.2294,0.02288507
0.2296,0.02087568
0.2298,0.01883083
0.23,0.01892863
0.2302,0.01726652
0.2304,0.01473568
0.2306,0.01226052
0.2308,0.010095
0.231,0.008290137
0.2312,0.005958818
0.2314,0.004717083
0.2316,0.003982682
0.2318,0.002583137
0.232,0.0007850859
0.2322,-0.001995598
0.2324,-0.004722815
0.2326,-0.005697252
0.2328,-0.008105435
0.233,-0.009527105
0.2332,-0.01039761
0.2334,-0.01174806
0.2336,-0.01407066
0.2338,-0.01685143
0.234,-0.01899264
0.2342,-0.01980424
0.2344,-0.02129148
0.2346,-0.02151801
0.2348,-0.02222788
0.235,-0.02543043
0.2352,-0.02732188
0.2354,-0.02719688
0.2356,-0.02662503
0.2358,-0.02771578
0.236,-0.02894398
0.2362,-0.03122151
0.2364,-0.03219917
0.2366,-0.03239257
0.2368,-0.03210738
0.237,-0.03246394
0.2372,-0.0324227
0.2374,-0.03176841
0.2376,-0.03104421
0.2378,-0.03014638
0.238,-0.03006662
0.2382,-0.03000817
0.2384,-0.0300792
0.2386,-0.02912525
0.2388,-0.0270256
0.239,-0.02548557
0.2392,-0.02235371
0.2394,-0.02195447
0.2396,-0.02198532
0.2398,-0.02148374
0.24,-0.01968938
0.2402,-0.01805053
0.2404,-0.01569979
0.2406,-0.01353046
0.2408,-0.01287584
0.241,-0.01094112
0.2412,-0.008577916
0.2414,-0.007454613
0.2416,-0.005347254
0.2418,-0.003837412
0.242,-0.003248994
0.2422,-0.001001727
0.2424,0.002554031
0.2426,0.006164534
0.2428,0.009646007
0.243,0.0104029
0.2432,0.012977
0.2434,0.01521791
0.2436,0.01636603
0.2438,0.01719314
0.244,0.0183529
0.2442,0.01990332
0.2444,0.02278369
0.2446,0.02523952
0.2448,0.02540161
0.245,0.02643045
0.2452,0.0265344
0.2454,0.02807005
0.2456,0.03030876
0.2458,0.030666
0.246,0.03178703
0.2462,0.03316988
0.2464,0.03232317
0.2466,0.03213277
0.2468,0.03333319
0.247,0.03245785
0.2472,0.03073256
0.2474,0.03189952
0.2476,0.03419345
0.2478,0.03401822
0.248,0.03334709
0.2482,0.03362759
0.2484,0.03216781
0.2486,0.03252482
0.2488,0.03214384
0.249,0.02931836
0.2492,0.02748223
0.2494,0.02605789
0.2496,0.02301732
0.2498,0.02201421
0.25,0.02100383
0.2502,0.01908564
0.2504,0.01515571
0.2506,0.0118752
0.2508,0.01021674
0.251,0.008602605
0.2512,0.007813322
0.2514,0.006320744
0.2516,0.005148199
0.2518,0.003369615
0.252,0.001081533
0.2522,-0.002020254
0.2524,-0.003490143
0.2526,-0.005559154
0.2528,-0.009030233
0.253,-0.01077032
0.2532,-0.01215797
0.2534,-0.01392021
0.2536,-0.01553914
0.2538,-0.01767047
0.254,-0.01980045
0.2542,-0.02173695
0.2544,-0.02428387
0.2546,-0.02555152
0.2548,-0.02545532
0.255,-0.02589238
0.2552,-0.02652088
0.2554,-0.02841526
0.2556,-0.03124649
0.2558,-0.03125966
0.256,-0.03079663
0.2562,-0.03198345
0.2564,-0.03240672
0.2566,-0.03248888
0.2568,-0.03201612
0.257,-0.03226837
0.2572,-0.03243732
0.2574,-0.03236447
0.2576,-0.03337521
0.2578,-0.03301318
0.258,-0.03192742
0.2582,-0.0308087
0.2584,-0.02964455
0.2586,-0.0292938
0.2588,-0.02925407
0.259,-0.02849382
0.2592,-0.02512763
0.2594,-0.02338491
0.2596,-0.02281613
0.2598,-0.01991084
0.26,-0.01818223
0.2602,-0.01735443
0.2604,-0.01628361
0.2606,-0.01396252
0.2608,-0.01177241
0.261,-0.01010185
0.2612,-0.008121072
0.2614,-0.006764566
0.2616,-0.005469094
0.2618,-0.004237432
0.262,-0.001385528
0.2622,-4.76493e-05
0.2624,0.001054052
0.2626,0.002347827
0.2628,0.005837464
0.263,0.009622392
0.2632,0.01321689
0.2634,0.01411086
0.2636,0.01644069
0.2638,0.01857165
0.264,0.01838198
0.2642,0.02053255
0.2644,0.02213874
0.2646,0.02408983
0.2648,0.02581826
0.265,0.02852207
0.2652,0.02985182
0.2654,0.0314023
0.2656,0.03268668
0.2658,0.03216727
0.266,0.03338777
0.2662,0.03359416
0.2664,0.03368688
0.2666,0.03383486
0.2668,0.03252999
0.267,0.03206131
0.2672,0.03145301
0.2674,0.03139162
0.2676,0.03190666
0.2678,0.03236952
0.268,0.03180193
0.2682,0.03116073
0.2684,0.03315279
0.2686,0.03196146
0.2688,0.02892081
0.269,0.02563904
0.2692,0.02519311
0.2694,0.02442943
0.2696,0.0232859
0.2698,0.02160222
0.27,0.02132059
0.2702,0.02045214
0.2704,0.01869015
0.2706,0.01524977
0.2708,0.01401904
0.271,0.01217199
0.2712,0.01004881
0.2714,0.007564556
0.2716,0.005460531
0.2718,0.00502058
0.272,0.002105
0.2722,-0.0009985904
0.2724,-0.004408077
0.2726,-0.005685958
0.2728,-0.007620352
0.273,-0.009468915
0.2732,-0.01137696
0.2734,-0.01250339
0.2736,-0.01263398
0.2738,-0.01377359
0.274,-0.0159112
0.2742,-0.01873973
0.2744,-0.01969114
0.2746,-0.02264013
0.2748,-0.02447258
0.275,-0.02565513
0.2752,-0.02742343
0.2754,-0.02982895
0.2756,-0.03101924
0.2758,-0.03227949
0.276,-0.03313386
0.2762,-0.03338427
0.2764,-0.03290362
0.2766,-0.03344963
0.2768,-0.03388871
0.277,-0.0337179
0.2772,-0.03435881
0.2774,-0.03433967
0.2776,-0.03525371
0.2778,-0.035476
0.278,-0.03504086
0.2782,-0.03304244
0.2784,-0.03281757
0.2786,-0.03222878
0.2788,-0.0315941
0.279,-0.02982322
0.2792,-0.02779548
0.2794,-0.02653702
0.2796,-0.02444484
0.2798,-0.02390122
0.28,-0.02503899
0.2802,-0.02183571
0.2804,-0.01863027
0.2806,-0.01712423
0.2808,-0.01595102
0.281,-0.01276638
0.2812,-0.009595718
0.2814,-0.007992218
0.2816,-0.006483284
0.2818,-0.00497208
0.282,-0.003797415
0.2822,-0.000100709
0.2824,0.001866928
0.2826,0.004324925
0.2828,0.006992131
0.283,0.009655477
0.2832,0.01302549
0.2834,0.01570693
0.2836,0.01787958
0.2838,0.02094133
0.284,0.02347519
0.2842,0.02750473
0.2844,0.02863668
0.2846,0.02867729
0.2848,0.02960207
0.285,0.03065803
0.2852,0.03063026
0.2854,0.03216269
0.2856,0.03303073
0.2858,0.032106
0.286,0.03152554
0.2862,0.03236386
0.2864,0.03442006
0.2866,0.03540877
0.2868,0.03645019
0.287,0.03690665
0.2872,0.03718656
0.2874,0.03653829
0.2876,0.03631639
0.2878,0.03524965
0.288,0.03536349
0.2882,0.03392386
0.2884,0.03476783
0.2886,0.03385215
0.2888,0.03144175
0.289,0.02932438
0.2892,0.02686993
0.2894,0.02473654
0.2896,0.02183192
0.2898,0.01942566
0.29,0.0176669
0.2902,0.01820088
0.2904,0.0166441
0.2906,0.01364028
0.2908,0.01068175
0.291,0.005737642
0.2912,0.002268424
0.2914,-0.0001839104
0.2916,-0.00179253
0.2918,-0.003414252
0.292,-0.004785012
0.2922,-0.006082436
0.2924,-0.007311586
0.2926,-0.008826118
0.2928,-0.01013775
0.293,-0.01116396
0.2932,-0.01198755
0.2934,-0.01319665
0.2936,-0.01443885
0.2938,-0.0168032
0.294,-0.0188163
0.2942,-0.01975347
0.2944,-0.02192377
0.2946,-0.02398887
0.2948,-0.02605785
0.295,-0.02740311
0.2952,-0.03066487
0.2954,-0.03137219
0.2956,-0.03101162
0.2958,-0.03075045
0.296,-0.03180768
0.2962,-0.03343155
0.2964,-0.0332665
0.2966,-0.03386799
0.2968,-0.03576117
0.297,-0.03662754
0.2972,-0.03543389
0.2974,-0.03394206
0.2976,-0.03638503
0.2978,-0.03704872
0.298,-0.03510724
0.2982,-0.03317261
0.2984,-0.03284493
0.2986,-0.03277818
0.2988,-0.03122368
0.299,-0.02874192
0.2992,-0.02676248
0.2994,-0.02385598
0.2996,-0.02181179
0.2998,-0.01920033
0.3,-0.01712758
0.3002,-0.01487895
0.3004,-0.01259749
0.3006,-0.01073142
0.3008,-0.008947656
0.301,-0.009444725
0.3012,-0.009036144
0.3014,-0.00736709
0.3016,-0.00583662
0.3018,-0.004607022
0.302,-0.001908221
0.3022,0.001923427
0.3024,0.004144021
0.3026,0.006740471
0.3028,0.009198669
0.303,0.01066211
0.3032,0.0134445
0.3034,0.01582616
0.3036,0.01741022
0.3038,0.0188302
0.304,0.02021344
0.3042,0.02107383
0.3044,0.02172795
0.3046,0.02428645
0.3048,0.02533924
0.305,0.02660322
0.3052,0.02827607
0.3054,0.02815816
0.3056,0.03009504
0.3058,0.03128501
0.306,0.0316575
0.3062,0.03309434
0.3064,0.0336724
0.3066,0.03343042
0.3068,0.03301815
0.307,0.03255317
0.3072,0.03175979
0.3074,0.03126827
0.3076,0.03116507
0.3078,0.03143707
0.308,0.03076369
0.3082,0.03158181
0.3084,0.03196084
0.3086,0.03118876
0.3088,0.02849758
0.309,0.02670182
0.3092,0.02612325
0.3094,0.02476281
0.3096,0.02335994
0.3098,0.02228314
0.31,0.02062916
0.3102,0.01767542
0.3104,0.01491796
0.3106,0.01153985
0.3108,0.008559253
0.311,0.007309879
0.3112,0.007595371
0.3114,0.006965406
0.3116,0.004232007
0.3118,0.002300847
0.312,0.0008612557
0.3122,-0.0008754609
0.3124,-0.003954592
0.3126,-0.007472001
0.3128,-0.01038588
0.313,-0.01136339
0.3132,-0.01124724
0.3134,-0.01181111
0.3136,-0.01328525
0.3138,-0.01658873
0.314,-0.01779407
0.3142,-0.01999789
0.3144,-0.02170256
0.3146,-0.02347311
0.3148,-0.02637713
0.315,-0.02837225
0.3152,-0.02881356
0.3154,-0.02998314
0.3156,-0.03042784
0.3158,-0.0301718
0.316,-0.03016519
0.3162,-0.03141183
0.3164,-0.03267362
0.3166,-0.03203337
0.3168,-0.0325106
0.317,-0.03135311
0.3172,-0.03265003
0.3174,-0.03277569
0.3176,-0.03058887
0.3178,-0.02987222
0.318,-0.03118035
0.3182,-0.03079497
0.3184,-0.02999466
0.3186,-0.03080866
0.3188,-0.03037292
0.319,-0.02740361
0.3192,-0.02607686
0.3194,-0.02650853
0.3196,-0.02442479
0.3198,-0.0233493
0.32,-0.02205371
0.3202,-0.01951946
0.3204,-0.01678993
0.3206,-0.01472051
0.3208,-0.01213536
0.321,-0.008794339
0.3212,-0.007575042
0.3214,-0.005926746
0.3216,-0.004519566
0.3218,-0.003338741
0.322,-0.001008434
0.3222,0.001961442
0.3224,0.00504367
0.3226,0.006250745
0.3228,0.008375105
0.323,0.009459903
0.3232,0.009025435
0.3234,0.01136553
0.3236,0.01417052
0.3238,0.01647119
0.324,0.01966222
0.3242,0.02086323
0.3244,0.02141047
0.3246,0.02314231
0.3248,0.02515611
0.325,0.02587749
0.3252,0.02609034
0.3254,0.02733337
0.3256,0.02756052
0.3258,0.02840391
0.326,0.029251
0.3262,0.02896914
0.3264,0.03113233
0.3266,0.03216543
0.3268,0.03384988
0.327,0.03438542
0.3272,0.03422551
0.3274,0.03342823
0.3276,0.03108248
0.3278,0.03197259
0.328,0.03188536
0.3282,0.03101697
0.3284,0.03060989
0.3286,0.02981836
0.3288,0.02803045
0.329,0.02595992
0.3292,0.02334342
0.3294,0.02139551
0.3296,0.02076477
0.3298,0.02028279
0.33,0.01921918
0.3302,0.01818738
0.3304,0.01572219
0.3306,0.01218039
0.3308,0.01026877
0.331,0.008942528
0.3312,0.007042917
0.3314,0.00401228
0.3316,0.001079013
0.3318,-0.0004411304
0.332,-0.0004083077
0.3322,-0.0006967782
0.3324,-0.001616403
0.3326,-0.002199389
0.3328,-0.005808968
0.333,-0.009830155
0.3332,-0.01142603
0.3334,-0.01399314
0.3336,-0.0174769
0.3338,-0.01838638
0.334,-0.01673692
0.3342,-0.01732426
0.3344,-0.02024653
0.3346,-0.02386083
0.3348,-0.02405527
0.335,-0.0247977
0.3352,-0.0262676
0.3354,-0.02682552
0.3356,-0.02808173
0.3358,-0.0280967
0.336,-0.02739772
0.3362,-0.02706246
0.3364,-0.02716312
0.3366,-0.02776146
0.3368,-0.02873462
0.337,-0.03030921
0.3372,-0.03121023
0.3374,-0.03011748
0.3376,-0.0304631
0.3378,-0.03071339
0.338,-0.03011065
0.3382,-0.0282408
0.3384,-0.02803049
0.3386,-0.02794397
0.3388,-0.02714608
0.339,-0.02697929
0.3392,-0.02618509
0.3394,-0.02418348
0.3396,-0.02312871
0.3398,-0.02240539
0.34,-0.02027628
0.3402,-0.01861395
0.3404,-0.01637652
0.3406,-0.01339645
0.3408,-0.01115129
0.341,-0.009074404
0.3412,-0.00832915
0.3414,-0.006287319
0.3416,-0.004485041
0.3418,-0.00318346
0.342,-0.0007425165
0.3422,0.0021984
0.3424,0.003839117
0.3426,0.006099569
0.3428,0.008312066
0.343,0.0108322
0.3432,0.01231204
0.3434,0.01366428
0.3436,0.01608955
0.3438,0.01839459
0.344,0.02098041
0.3442,0.02297558
0.3444,0.02471881
0.3446,0.02454805
0.3448,0.02310828
0.345,0.02397967
0.3452,0.02474806
0.3454,0.02644787
0.3456,0.0274556
0.3458,0.02935183
0.346,0.02974446
0.3462,0.03176028
0.3464,0.03417981
0.3466,0.03352257
0.3468,0.03296239
0.347,0.0331524
0.3472,0.03451102
0.3474,0.03515159
0.3476,0.03429497
0.3478,0.0324702
0.348,0.0303666
0.3482,0.02881211
0.3484,0.02847352
0.3486,0.02840706
0.3488,0.0276295
0.349,0.0264474
0.3492,0.02486666
0.3494,0.02224017
0.3496,0.02151851
0.3498,0.02140475
0.35,0.02006039
0.3502,0.01804826
0.3504,0.01569885
0.3506,0.01282936
0.3508,0.0106026
0.351,0.009290555
0.3512,0.009589103
0.3514,0.006856365
0.3516,0.003611376
0.3518,0.0001533433
0.352,-0.0008855487
0.3522,-0.002043987
0.3524,-0.004981669
0.3526,-0.007861106
0.3528,-0.009978306
0.353,-0.01130001
0.3532,-0.01257355
0.3534,-0.01352264
0.3536,-0.01486058
0.3538,-0.01775607
0.354,-0.02145418
0.3542,-0.02409312
0.3544,-0.02478887
0.3546,-0.0256458
0.3548,-0.02737008
0.355,-0.02816533
0.3552,-0.03009272
0.3554,-0.03180544
0.3556,-0.03127106
0.3558,-0.03218888
0.356,-0.03276589
0.3562,-0.03169899
0.3564,-0.0315818
0.3566,-0.03078876
0.3568,-0.03072572
0.357,-0.03008566
0.3572,-0.03044502
0.3574,-0.03056982
0.3576,-0.03043911
0.3578,-0.03114184
0.358,-0.03010951
0.3582,-0.03066531
0.3584,-0.03237819
0.3586,-0.03166989
0.3588,-0.03039715
0.359,-0.02790205
0.3592,-0.02663999
0.3594,-0.02442309
0.3596,-0.02145899
0.3598,-0.01917665
0.36,-0.01885109
0.3602,-0.01903276
0.3604,-0.01669908
0.3606,-0.01326188
0.3608,-0.01005823
0.361,-0.007405783
0.3612,-0.004830763
0.3614,-0.002318706
0.3616,-0.0002723938
0.3618,0.0001882202
0.362,-0.0005091674
0.3622,0.001445928
0.3624,0.004990699
0.3626,0.006656416
0.3628,0.008510709
0.363,0.01004123
0.3632,0.01144149
0.3634,0.01371572
0.3636,0.01531486
0.3638,0.01781352
0.364,0.01993623
0.3642,0.02071476
0.3644,0.02250364
0.3646,0.02448115
0.3648,0.0262759
0.365,0.02760217
0.3652,0.02640644
0.3654,0.02717308
0.3656,0.02998763
0.3658,0.03184037
0.366,0.03275678
0.3662,0.03215971
0.3664,0.031805
0.3666,0.03189176
0.3668,0.03146167
0.367,0.03071118
0.3672,0.03016542
0.3674,0.03014523
0.3676,0.03121227
0.3678,0.03119289
0.368,0.03002504
0.3682,0.02952807
0.3684,0.02938046
0.3686,0.02886092
0.3688,0.02660425
0.369,0.02497396
0.3692,0.02353564
0.3694,0.02261542
0.3696,0.02187178
0.3698,0.02213269
0.37,0.02128989
0.3702,0.01838764
0.3704,0.01530786
0.3706,0.01341418
0.3708,0.01157573
0.371,0.009098326
0.3712,0.007193592
0.3714,0.004859413
0.3716,0.001983014
0.3718,0.0007804708
0.372,0.0008006919
0.3722,6.72781e-06
0.3724,-0.003537338
0.3726,-0.005150773
0.3728,-0.007067854
0.373,-0.007546696
0.3732,-0.009352943
0.3734,-0.0110308
0.3736,-0.0110234
0.3738,-0.01361696
0.374,-0.01564587
0.3742,-0.01679417
0.3744,-0.01826663
0.3746,-0.02008396
0.3748,-0.02207191
0.375,-0.02364607
0.3752,-0.02604511
0.3754,-0.02635775
0.3756,-0.02766401
0.3758,-0.02897218
0.376,-0.02888726
0.3762,-0.02875708
0.3764,-0.02915361
0.3766,-0.03034572
0.3768,-0.03012554
0.377,-0.03199695
0.3772,-0.03122488
0.3774,-0.02921309
0.3776,-0.02852852
0.3778,-0.03142795
0.378,-0.03298225
0.3782,-0.03387874
0.3784,-0.03313529
0.3786,-0.03155986
0.3788,-0.029801
0.379,-0.02919897
0.3792,-0.02756182
0.3794,-0.02552091
0.3796,-0.02278159
0.3798,-0.0206974
0.38,-0.01975558
0.3802,-0.01843011
0.3804,-0.01631342
0.3806,-0.01331179
0.3808,-0.01063229
0.381,-0.008818056
0.3812,-0.007364569
0.3814,-0.004690554
0.3816,-0.00362309
0.3818,-0.003459067
0.382,-0.001624849
0.3822,-0.0002409512
0.3824,0.001925977
0.3826,0.003652849
0.3828,0.006317818
0.383,0.008977754
0.3832,0.01024623
0.3834,0.01045
0.3836,0.013285
0.3838,0.01584591
0.384,0.01736243
0.3842,0.01945835
0.3844,0.01982317
0.3846,0.02063205
0.3848,0.02212419
0.385,0.0249618
0.3852,0.0266667
0.3854,0.02805101
0.3856,0.02803816
0.3858,0.02783181
0.386,0.02906884
0.3862,0.03102346
0.3864,0.03135186
0.3866,0.03137764
0.3868,0.03107536
0.387,0.02963613
0.3872,0.02919056
0.3874,0.02875186
0.3876,0.02790251
0.3878,0.02636443
0.388,0.02648524
0.3882,0.02616808
0.3884,0.02612912
0.3886,0.02686399
0.3888,0.02469977
0.389,0.02175359
0.3892,0.02252504
0.3894,0.02372411
0.3896,0.02376285
0.3898,0.02226849
0.39,0.01983428
0.3902,0.0180119
0.3904,0.01741496
0.3906,0.01436506
0.3908,0.01258838
0.391,0.01173139
0.3912,0.008331846
0.3914,0.005528455
0.3916,0.003293121
0.3918,0.003005069
0.392,0.0004854309
0.3922,-0.002401046
0.3924,-0.005392702
0.3926,-0.007447582
0.3928,-0.008476003
0.393,-0.01012792
0.3932,-0.01226616
0.3934,-0.01457633
0.3936,-0.01665879
0.3938,-0.0165855
0.394,-0.01766402
0.3942,-0.01915109
0.3944,-0.02018912
0.3946,-0.02112431
0.3948,-0.02237524
0.395,-0.02299658
0.3952,-0.024201
0.3954,-0.02487565
0.3956,-0.02536926
0.3958,-0.02650458
0.396,-0.02722895
0.3962,-0.0276794
0.3964,-0.02815373
0.3966,-0.02953522
0.3968,-0.03053144
0.397,-0.02846599
0.3972,-0.02854226
0.3974,-0.0291324
0.3976,-0.02864624
0.3978,-0.02842741
0.398,-0.02826672
0.3982,-0.02741738
0.3984,-0.02613221
0.3986,-0.02687991
0.3988,-0.02615844
0.399,-0.023785
0.3992,-0.02194222
0.3994,-0.02039312
0.3996,-0.0217493
0.3998,-0.02174127
0.4,-0.01972417
0.4002,-0.01848193
0.4004,-0.01654958
0.4006,-0.01494746
0.4008,-0.01206595
0.401,-0.01023763
0.4012,-0.008491959
0.4014,-0.007007643
0.4016,-0.007055515
0.4018,-0.005906889
0.402,-0.005050775
0.4022,-0.00292106
0.4024,0.001008117
0.4026,0.004776131
0.4028,0.00574006
0.403,0.006808167
0.4032,0.009618276
0.4034,0.01215028
0.4036,0.01481786
0.4038,0.01756885
0.404,0.01974847
0.4042,0.02171876
0.4044,0.02404207
0.4046,0.02494233
0.4048,0.02571865
0.405,0.02645182
0.4052,0.0276267
0.4054,0.02962001
0.4056,0.02978075
0.4058,0.02989775
0.406,0.02983092
0.4062,0.02920773
0.4064,0.02894081
0.4066,0.02988412
0.4068,0.02902678
0.407,0.0277561
0.4072,0.03011406
0.4074,0.03099484
0.4076,0.03038968
0.4078,0.03091382
0.408,0.03221228
0.4082,0.03197039
0.4084,0.0319155
0.4086,0.03188568
0.4088,0.02962453
0.409,0.02666786
0.4092,0.02297933
0.4094,0.02230277
0.4096,0.02200189
0.4098,0.02013046
0.41,0.01908677
0.4102,0.01694109
0.4104,0.0154381
0.4106,0.0131837
0.4108,0.0120303
0.411,0.01223072
0.4112,0.01011066
0.4114,0.006648148
0.4116,0.004612965
0.4118,0.00277038
0.412,0.0005714888
0.4122,-0.0008060381
0.4124,-0.002214524
0.4126,-0.004935494
0.4128,-0.007244714
0.413,-0.009222531
0.4132,-0.0105303
0.4134,-0.01264686
0.4136,-0.01583401
0.4138,-0.01830513
0.414,-0.01992896
0.4142,-0.02025175
0.4144,-0.022344
0.4146,-0.02379524
0.4148,-0.02466331
0.415,-0.0260614
0.4152,-0.0269176
0.4154,-0.027548
0.4156,-0.0283522
0.4158,-0.02952996
0.416,-0.03039875
0.4162,-0.03085801
0.4164,-0.03031234
0.4166,-0.02971524
0.4168,-0.03032923
0.417,-0.0319518
0.4172,-0.03126261
0.4174,-0.03028279
0.4176,-0.0281181
0.4178,-0.02698203
0.418,-0.02675469
0.4182,-0.02688483
0.4184,-0.02762236
0.4186,-0.0271648
0.4188,-0.02554877
0.419,-0.0243095
0.4192,-0.02305997
0.4194,-0.02168088
0.4196,-0.02003885
0.4198,-0.0184773
0.42,-0.01680975
0.4202,-0.01365077
0.4204,-0.01126136
0.4206,-0.01058089
0.4208,-0.01051127
0.421,-0.008796051
0.4212,-0.007525037
0.4214,-0.006125337
0.4216,-0.004888115
0.4218,-0.003656686
0.422,-0.001115606
0.4222,-0.0009520118
0.4224,0.0003684529
0.4226,0.00178388
0.4228,0.00402985
0.423,0.007583277
0.4232,0.01074818
0.4234,0.01296505
0.4236,0.01368039
0.4238,0.01524621
0.424,0.01701844
0.4242,0.01822171
0.4244,0.01809578
0.4246,0.01719207
0.4248,0.01863063
0.425,0.02122984
0.4252,0.02324368
0.4254,0.02480558
0.4256,0.02680807
0.4258,0.02883391
0.426,0.02871685
0.4262,0.02872777
0.4264,0.02936501
0.4266,0.02971284
0.4268,0.03085032
0.427,0.0302158
0.4272,0.02979731
0.4274,0.02898459
0.4276,0.02694078
0.4278,0.02667722
0.428,0.02531548
0.4282,0.0255531
0.4284,0.026986
0.4286,0.02642043
0.4288,0.0250614
0.429,0.02389668
0.4292,0.02438917
0.4294,0.02276897
0.4296,0.02033778
0.4298,0.01795876
0.43,0.0169191
0.4302,0.01394381
0.4304,0.01110919
0.4306,0.009794516
0.4308,0.008013384
0.431,0.006323382
0.4312,0.002629854
0.4314,0.000825849
0.4316,0.0001848914
0.4318,-0.001229535
0.432,-0.001620096
0.4322,-0.002870141
0.4324,-0.005321404
0.4326,-0.00721813
0.4328,-0.0099698
0.433,-0.01017347
0.4332,-0.01114645
0.4334,-0.01208367
0.4336,-0.01402555
0.4338,-0.01580149
0.434,-0.01756395
0.4342,-0.01906243
0.4344,-0.01989826
0.4346,-0.02047262
0.4348,-0.02118396
0.435,-0.02396294
0.4352,-0.02653506
0.4354,-0.02721016
0.4356,-0.02609763
0.4358,-0.02638793
0.436,-0.02703899
0.4362,-0.02712931
0.4364,-0.02772904
0.4366,-0.02687315
0.4368,-0.02563405
0.437,-0.0249935
0.4372,-0.02531857
0.4374,-0.02610563
0.4376,-0.02548488
0.4378,-0.02613785
0.438,-0.02442516
0.4382,-0.02430108
0.4384,-0.02560147
0.4386,-0.0243479
0.4388,-0.02242009
0.439,-0.02361567
0.4392,-0.02363743
0.4394,-0.0202622
0.4396,-0.01773372
0.4398,-0.01687873
0.44,-0.01655532
0.4402,-0.01339464
0.4404,-0.01120968
0.4406,-0.01188683
0.4408,-0.01080293
0.441,-0.007667277
0.4412,-0.005813378
0.4414,-0.004641511
0.4416,-0.003832954
0.4418,-0.002777446
0.442,-0.0007761654
0.4422,0.0002397316
0.4424,0.002596
0.4426,0.00514296
0.4428,0.008328108
0.443,0.01008575
0.4432,0.01217841
0.4434,0.01257534
0.4436,0.01436437
0.4438,0.01760243
0.444,0.01932466
0.4442,0.02150626
0.4444,0.02331845
0.4446,0.02284304
0.4448,0.02210201
0.445,0.02291818
0.4452,0.02570475
0.4454,0.02734265
0.4456,0.02741878
0.4458,0.02867363
0.446,0.02916106
0.4462,0.02822834
0.4464,0.0271155
0.4466,0.02774814
0.4468,0.02793702
0.447,0.02784606
0.4472,0.02808465
0.4474,0.02838381
0.4476,0.02830889
0.4478,0.02618298
0.448,0.02453211
0.4482,0.02426778
0.4484,0.02408202
0.4486,0.02388917
0.4488,0.02371825
0.449,0.02273676
0.4492,0.02284412
0.4494,0.022659
0.4496,0.02064626
0.4498,0.01847711
0.45,0.01661052
0.4502,0.01398637
0.4504,0.01057293
0.4506,0.008799914
0.4508,0.008276921
0.451,0.009097514
0.4512,0.007011298
0.4514,0.005507985
0.4516,0.004763157
0.4518,0.00296901
0.452,0.0006750522
0.4522,-0.003453298
0.4524,-0.005777996
0.4526,-0.007713245
0.4528,-0.008899893
0.453,-0.009149228
0.4532,-0.01050822
0.4534,-0.01192898
0.4536,-0.0156884
0.4538,-0.01831734
0.454,-0.01872457
0.4542,-0.01891967
0.4544,-0.02081996
0.4546,-0.02329721
0.4548,-0.02506194
0.455,-0.02579632
0.4552,-0.02507223
0.4554,-0.02589572
0.4556,-0.02592227
0.4558,-0.02613494
0.456,-0.02667505
0.4562,-0.02819657
0.4564,-0.02966793
0.4566,-0.03024824
0.4568,-0.02965171
0.457,-0.02738927
0.4572,-0.02714329
0.4574,-0.0285497
0.4576,-0.02841145
0.4578,-0.02930964
0.458,-0.02956118
0.4582,-0.02766662
0.4584,-0.02612128
0.4586,-0.02533657
0.4588,-0.02388038
0.459,-0.02359309
0.4592,-0.02192942
0.4594,-0.02020538
0.4596,-0.01813878
0.4598,-0.01632906
0.46,-0.01630074
0.4602,-0.01480793
0.4604,-0.01165192
0.4606,-0.01033134
0.4608,-0.009845109
0.461,-0.006943358
0.4612,-0.004289867
0.4614,-0.003550897
0.4616,-0.001638606
0.4618,0.0005553878
0.462,0.002217876
0.4622,0.003365489
0.4624,0.005602473
0.4626,0.00763189
0.4628,0.008921536
0.463,0.0099456
0.4632,0.009489989
0.4634,0.01114802
0.4636,0.01453932
0.4638,0.01558182
0.464,0.01503918
0.4642,0.0162915
0.4644,0.01798999
0.4646,0.01892329
0.4648,0.01869181
0.465,0.02024221
0.4652,0.0220556
0.4654,0.02345873
0.4656,0.02554795
0.4658,0.02614018
0.466,0.02621599
0.4662,0.02654562
0.4664,0.02825744
0.4666,0.03079681
0.4668,0.03048104
0.467,0.03020529
0.4672,0.03043851
0.4674,0.03019945
0.4676,0.03005217
0.4678,0.02942831
0.468,0.02866255
0.4682,0.02780014
0.4684,0.02665518
0.4686,0.02533429
0.4688,0.02498695
0.469,0.0235297
0.4692,0.0214299
0.4694,0.01991412
0.4696,0.01715165
0.4698,0.01795982
0.47,0.01764836
0.4702,0.01597217
0.4704,0.01403562
0.4706,0.01150397
0.4708,0.01056363
0.471,0.008000283
0.4712,0.005791369
0.4714,0.003822673
0.4716,0.004019274
0.4718,0.004667693
0.472,0.0039593
0.4722,0.002239774
0.4724,-0.0002078604
0.4726,-0.003279405
0.4728,-0.003106494
0.473,-0.00343245
0.4732,-0.006163217
0.4734,-0.009000524
0.4736,-0.01128063
0.4738,-0.01365288
0.474,-0.01560684
0.4742,-0.01711403
0.4744,-0.02072932
0.4746,-0.02232247
0.4748,-0.02305647
0.475,-0.02400312
0.4752,-0.02477241
0.4754,-0.02729789
0.4756,-0.02847042
0.4758,-0.02598991
0.476,-0.02623525
0.4762,-0.02775238
0.4764,-0.02868606
0.4766,-0.02846488
0.4768,-0.02834428
0.477,-0.02994692
0.4772,-0.02989462
0.4774,-0.02827026
0.4776,-0.02680738
0.4778,-0.02637093
0.478,-0.02722523
0.4782,-0.0272803
0.4784,-0.02641399
0.4786,-0.02582661
0.4788,-0.02357114
0.479,-0.02228537
0.4792,-0.0214661
0.4794,-0.01985144
0.4796,-0.01708898
0.4798,-0.01660274
0.48,-0.01605328
0.4802,-0.01360355
0.4804,-0.01254452
0.4806,-0.01100763
0.4808,-0.00984945
0.481,-0.007927648
0.4812,-0.005298844
0.4814,-0.004530224
0.4816,-0.003833349
0.4818,-0.002237377
0.482,-0.0001496054
0.4822,0.002173122
0.4824,0.003296104
0.4826,0.005494129
0.4828,0.007198006
0.483,0.009384383
0.4832,0.01049129
0.4834,0.01141706
0.4836,0.01474934
0.4838,0.01861643
0.484,0.02001063
0.4842,0.01927513
0.4844,0.01786485
0.4846,0.01927567
0.4848,0.02068439
0.485,0.02164819
0.4852,0.02342849
0.4854,0.02477041
0.4856,0.02459941
0.4858,0.0234382
0.486,0.02411663
0.4862,0.02567944
0.4864,0.02922508
0.4866,0.03065352
0.4868,0.03046106
0.487,0.03036497
0.4872,0.03040605
0.4874,0.02987373
0.4876,0.02894949
0.4878,0.02830202
0.488,0.02813048
0.4882,0.02856231
0.4884,0.02719297
0.4886,0.02597351
0.4888,0.02513944
0.489,0.02574733
0.4892,0.02438899
0.4894,0.02170808
0.4896,0.02054049
0.4898,0.01961775
0.49,0.01883968
0.4902,0.01671239
0.4904,0.01511232
0.4906,0.01396054
0.4908,0.0106643
0.491,0.009297998
0.4912,0.006490967
0.4914,0.004224884
0.4916,0.002776287
0.4918,0.002662484
0.492,0.000446478
0.4922,-0.00155341
0.4924,-0.001766928
0.4926,-0.004640008
0.4928,-0.008373129
0.493,-0.01114834
0.4932,-0.01314014
0.4934,-0.01543084
0.4936,-0.01814124
0.4938,-0.01830476
0.494,-0.01930099
0.4942,-0.02244063
0.4944,-0.02263292
0.4946,-0.02153958
0.4948,-0.02165038
0.495,-0.02422159
0.4952,-0.02431229
0.4954,-0.02396736
0.4956,-0.02500307
0.4958,-0.02737091
0.496,-0.02840049
0.4962,-0.02869283
0.4964,-0.02905049
0.4966,-0.02931707
0.4968,-0.02920484
0.497,-0.02963618
0.4972,-0.02988078
0.4974,-0.0295855
0.4976,-0.02843595
0.4978,-0.027824
0.498,-0.02816589
0.4982,-0.02814045
0.4984,-0.02691472
0.4986,-0.02700567
0.4988,-0.02638574
0.499,-0.02435299
0.4992,-0.02052252
0.4994,-0.01676115
0.4996,-0.01538291
0.4998,-0.01433372
0.5,-0.01291352
0.5002,-0.01021794
0.5004,-0.008762014
0.5006,-0.007487612
0.5008,-0.006898019
0.501,-0.006694252
0.5012,-0.005571416
0.5014,-0.003621879
0.5016,-0.002315682
0.5018,-0.001383749
0.502,3.429303e-05
0.5022,0.001392268
0.5024,0.005193471
0.5026,0.00777155
0.5028,0.009116453
0.503,0.009409512
0.5032,0.01069343
0.5034,0.01294648
0.5036,0.01514393
0.5038,0.01503822
0.504,0.01582676
0.5042,0.01751677
0.5044,0.01906057
0.5046,0.02072493
0.5048,0.02136799
0.505,0.02299334
0.5052,0.02427259
0.5054,0.02441426
0.5056,0.02350456
0.5058,0.02403542
0.506,0.02452968
0.5062,0.02687953
0.5064,0.02658315
0.5066,0.02625634
0.5068,0.02804721
0.507,0.02811798
0.5072,0.02813369
0.5074,0.02940004
0.5076,0.02930915
0.5078,0.03017644
0.508,0.02984003
0.5082,0.02878242
0.5084,0.02850477
0.5086,0.02802294
0.5088,0.02514879
0.509,0.02100794
0.5092,0.0195094
0.5094,0.01877744
0.5096,0.01824755
0.5098,0.01625474
0.51,0.01628431
0.5102,0.01551134
0.5104,0.01378097
0.5106,0.0118644
0.5108,0.009877601
0.511,0.00820992
0.5112,0.004824968
0.5114,0.003973926
0.5116,0.001937681
0.5118,0.001253816
0.512,0.001343023
0.5122,-0.002477968
0.5124,-0.00508578
0.5126,-0.006652038
0.5128,-0.009028524
0.513,-0.01032614
0.5132,-0.01176046
0.5134,-0.01297155
0.5136,-0.0152533
0.5138,-0.01596877
0.514,-0.01680904
0.5142,-0.02011125
0.5144,-0.0208768
0.5146,-0.01967377
0.5148,-0.02137265
0.515,-0.02267282
0.5152,-0.02426674
0.5154,-0.02610062
0.5156,-0.02632356
0.5158,-0.0268347
0.516,-0.02668236
0.5162,-0.02576916
0.5164,-0.0253058
0.5166,-0.02641003
0.5168,-0.02814706
0.517,-0.0290382
0.5172,-0.02814274
0.5174,-0.02675306
0.5176,-0.02602665
0.5178,-0.02594491
0.518,-0.02587628
0.5182,-0.02585853
0.5184,-0.02757548
0.5186,-0.02753104
0.5188,-0.02568139
0.519,-0.02446051
0.5192,-0.02249037
0.5194,-0.02104272
0.5196,-0.02040766
0.5198,-0.01835303
0.52,-0.01578199
0.5202,-0.01245756
0.5204,-0.009886062
0.5206,-0.007159466
0.5208,-0.006299726
0.521,-0.00621015
0.5212,-0.007168509
0.5214,-0.006865799
0.5216,-0.005306005
0.5218,-0.004301985
0.522,-0.001853729
0.5222,0.0006803572
0.5224,0.00161843
0.5226,0.001842867
0.5228,0.00556519
0.523,0.00788443
0.5232,0.009032791
0.5234,0.01133473
0.5236,0.0142509
0.5238,0.01543461
0.524,0.01682758
0.5242,0.0178596
0.5244,0.01765636
0.5246,0.0181204
0.5248,0.01910851
0.525,0.02017405
0.5252,0.02048173
0.5254,0.02127224
0.5256,0.02310481
0.5258,0.02552066
0.526,0.026582
0.5262,0.02782007
0.5264,0.02954848
0.5266,0.03083665
0.5268,0.03111728
0.527,0.03088417
0.5272,0.0293951
0.5274,0.02903633
0.5276,0.02882288
0.5278,0.02717995
0.528,0.02668419
0.5282,0.02693094
0.5284,0.02630195
0.5286,0.025337
0.5288,0.02239193
0.529,0.02163669
0.5292,0.02077
0.5294,0.01885945
0.5296,0.01781816
0.5298,0.0169234
0.53,0.01603016
0.5302,0.01463675
0.5304,0.01414409
0.5306,0.01300621
0.5308,0.01002575
0.531,0.007890719
0.5312,0.004822328
0.5314,0.002855
0.5316,0.002108457
0.5318,0.001580473
0.532,-0.0003074032
0.5322,-0.00199364
0.5324,-0.003502915
0.5326,-0.004996484
0.5328,-0.005739292
0.533,-0.007299094
0.5332,-0.01003674
0.5334,-0.01299332
0.5336,-0.01634974
0.5338,-0.01709921
0.534,-0.01788776
0.5342,-0.02052142
0.5344,-0.02101594
0.5346,-0.02174487
0.5348,-0.02292024
0.535,-0.02557442
0.5352,-0.0271998
0.5354,-0.02707169
0.5356,-0.02672608
0.5358,-0.02715814
0.536,-0.02639012
0.5362,-0.02445003
0.5364,-0.02350539
0.5366,-0.02344984
0.5368,-0.02283325
0.537,-0.02323952
0.5372,-0.02483716
0.5374,-0.02692597
0.5376,-0.02809104
0.5378,-0.02762887
0.538,-0.02819544
0.5382,-0.02891763
0.5384,-0.02836423
0.5386,-0.02792409
0.5388,-0.0252762
0.539,-0.02225484
0.5392,-0.02087926
0.5394,-0.02075057
0.5396,-0.01996405
0.5398,-0.01729269
0.54,-0.01558326
0.5402,-0.0155227
0.5404,-0.01294112
0.5406,-0.01186389
0.5408,-0.01089643
0.541,-0.008216755
0.5412,-0.005718715
0.5414,-0.002821736
0.5416,-0.00187345
0.5418,-0.0009559561
0.542,-0.0002160528
0.5422,0.002148091
0.5424,0.00448021
0.5426,0.005972448
0.5428,0.008540737
0.543,0.008863824
0.5432,0.009675808
0.5434,0.01140668
0.5436,0.01431166
0.5438,0.01589645
0.544,0.01667571
0.5442,0.01926942
0.5444,0.0212778
0.5446,0.02304685
0.5448,0.02497246
0.545,0.02782407
0.5452,0.0294541
0.5454,0.02891817
0.5456,0.02860863
0.5458,0.02874334
0.546,0.02920444
0.5462,0.02953828
0.5464,0.02829433
0.5466,0.02810218
0.5468,0.02807382
0.547,0.0265719
0.5472,0.0267878
0.5474,0.02631586
0.5476,0.02569695
0.5478,0.02529956
0.548,0.02583092
0.5482,0.02667228
0.5484,0.02667561
0.5486,0.02564148
0.5488,0.02185121
0.549,0.02062165
0.5492,0.0209384
0.5494,0.02012339
0.5496,0.01771761
0.5498,0.01676757
0.55,0.01594954
0.5502,0.01526566
0.5504,0.01317284
0.5506,0.01152434
0.5508,0.009373892
0.551,0.007126668
0.5512,0.005936439
0.5514,0.003828401
0.5516,0.002180653
0.5518,-5.355058e-05
0.552,-0.0003312924
0.5522,-0.002055912
0.5524,-0.004476632
0.5526,-0.008277206
0.5528,-0.0107962
0.553,-0.0111491
0.5532,-0.01215695
0.5534,-0.01428894
0.5536,-0.01671404
0.5538,-0.01729818
0.554,-0.01841138
0.5542,-0.02001258
0.5544,-0.02101674
0.5546,-0.02171593
0.5548,-0.02215847
0.555,-0.02367486
0.5552,-0.02657036
0.5554,-0.0270246
0.5556,-0.02657987
0.5558,-0.02693685
0.556,-0.02598308
0.5562,-0.02650559
0.5564,-0.02722598
0.5566,-0.0284727
0.5568,-0.02864307
0.557,-0.02683411
0.5572,-0.02705139
0.5574,-0.02818018
0.5576,-0.02761261
0.5578,-0.02699177
0.558,-0.02714317
0.5582,-0.02686884
0.5584,-0.02715465
0.5586,-0.02741101
0.5588,-0.02384102
0.559,-0.02026275
0.5592,-0.02027065
0.5594,-0.02094109
0.5596,-0.0191691
0.5598,-0.01763974
0.56,-0.01549145
0.5602,-0.01304347
0.5604,-0.01196229
0.5606,-0.01154803
0.5608,-0.01001229
0.561,-0.007173329
0.5612,-0.006199849
0.5614,-0.005574528
0.5616,-0.004795645
0.5618,-0.004361327
0.562,-0.00314606
0.5622,-0.000822569
0.5624,0.001603042
0.5626,0.004314334
0.5628,0.006166354
0.563,0.007026063
0.5632,0.008947861
0.5634,0.01151816
0.5636,0.01312307
0.5638,0.01401976
0.564,0.01704607
0.5642,0.01967344
0.5644,0.02082381
0.5646,0.02089826
0.5648,0.02334519
0.565,0.02614659
0.5652,0.02604232
0.5654,0.02553652
0.5656,0.02741532
0.5658,0.02898199
0.566,0.02870956
0.5662,0.02805264
0.5664,0.02799847
0.5666,0.03031792
0.5668,0.03071342
0.567,0.02882298
0.5672,0.02795654
0.5674,0.0277525
0.5676,0.02700203
0.5678,0.02636327
0.568,0.02540071
0.5682,0.02399503
0.5684,0.02357947
0.5686,0.02485537
0.5688,0.02576635
0.569,0.02444007
0.5692,0.02303759
0.5694,0.02314813
0.5696,0.02139224
0.5698,0.01990513
0.57,0.01860572
0.5702,0.01620327
0.5704,0.01390246
0.5706,0.01210611
0.5708,0.009853298
0.571,0.007898992
0.5712,0.006461576
0.5714,0.005146698
0.5716,0.004772477
0.5718,0.003098918
0.572,-0.000222856
0.5722,-0.001885346
0.5724,-0.002638408
0.5726,-0.004657927
0.5728,-0.005642856
0.573,-0.00718637
0.5732,-0.008372272
0.5734,-0.0094912
0.5736,-0.01255031
0.5738,-0.01502395
0.574,-0.0158202
0.5742,-0.01713044
0.5744,-0.01788666
0.5746,-0.02021245
0.5748,-0.02329002
0.575,-0.02353904
0.5752,-0.02423654
0.5754,-0.02526211
0.5756,-0.02519831
0.5758,-0.02604076
0.576,-0.02558681
0.5762,-0.02517136
0.5764,-0.02585697
0.5766,-0.02680687
0.5768,-0.02695278
0.577,-0.02681618
0.5772,-0.02765082
0.5774,-0.02700638
0.5776,-0.02603265
0.5778,-0.02627666
0.578,-0.02658201
0.5782,-0.02646499
0.5784,-0.02584671
0.5786,-0.02401472
0.5788,-0.02165924
0.579,-0.02124178
0.5792,-0.02164877
0.5794,-0.02049918
0.5796,-0.01881071
0.5798,-0.01831065
0.58,-0.01633702
0.5802,-0.01393539
0.5804,-0.01390723
0.5806,-0.01346334
0.5808,-0.01242274
0.581,-0.009524665
0.5812,-0.005778534
0.5814,-0.004598686
0.5816,-0.003637714
0.5818,-0.002624272
0.582,-0.002552669
0.5822,-0.0006319418
0.5824,0.001453043
0.5826,0.002874457
0.5828,0.004505434
0.583,0.008196719
0.5832,0.01060466
0.5834,0.01252831
0.5836,0.01452662
0.5838,0.0152587
0.584,0.01626972
0.5842,0.01937946
0.5844,0.02088687
0.5846,0.02153867
0.5848,0.02393788
0.585,0.0246443
0.5852,0.02397418
0.5854,0.0246498
0.5856,0.02705681
0.5858,0.02746836
0.586,0.02760039
0.5862,0.02707032
0.5864,0.02680426
0.5866,0.0292022
0.5868,0.02867111
0.587,0.02854878
0.5872,0.02833808
0.5874,0.02620989
0.5876,0.0257794
0.5878,0.02596822
0.588,0.0252882
0.5882,0.02502017
0.5884,0.02496612
0.5886,0.02227481
0.5888,0.02154
0.589,0.02276358
0.5892,0.02315683
0.5894,0.02096252
0.5896,0.01901758
0.5898,0.01792495
0.59,0.01522337
0.5902,0.01279488
0.5904,0.01128406
0.5906,0.01047735
0.5908,0.008846021
0.591,0.006788868
0.5912,0.004546514
0.5914,0.003534144
0.5916,0.001889245
0.5918,-0.0002792374
0.592,-0.003217372
0.5922,-0.006346622
0.5924,-0.008080499
0.5926,-0.01096002
0.5928,-0.01145745
0.593,-0.01385523
0.5932,-0.01486722
0.5934,-0.01603737
0.5936,-0.01800263
0.5938,-0.01757802
0.594,-0.01880004
0.5942,-0.02004495
0.5944,-0.0223077
0.5946,-0.02463698
0.5948,-0.02444319
0.595,-0.02436882
0.5952,-0.02490089
0.5954,-0.02611278
0.5956,-0.02565555
0.5958,-0.02575247
0.596,-0.02538504
0.5962,-0.02613614
0.5964,-0.02792151
0.5966,-0.02872884
0.5968,-0.02881091
0.597,-0.02852481
0.5972,-0.02797518
0.5974,-0.02888773
0.5976,-0.02877722
0.5978,-0.02772391
0.598,-0.02636772
0.5982,-0.02540204
0.5984,-0.02537508
0.5986,-0.02501105
0.5988,-0.02437687
0.599,-0.02363329
0.5992,-0.02158005
0.5994,-0.02033253
0.5996,-0.01866686
0.5998,-0.01737734
0.6,-0.0156639
0.6002,-0.01423943
0.6004,-0.01320795
0.6006,-0.01194364
0.6008,-0.009770684
0.601,-0.007132297
0.6012,-0.00581351
0.6014,-0.005372053
0.6016,-0.002277807
0.6018,-0.0004126554
0.602,0.00154365
0.6022,0.003065506
0.6024,0.004089657
0.6026,0.006879851
0.6028,0.008799531
0.603,0.009803386
0.6032,0.01160378
0.6034,0.01386978
0.6036,0.01725841
0.6038,0.01974408
0.604,0.02045567
0.6042,0.02028012
0.6044,0.02104797
0.6046,0.02225656
0.6048,0.02514165
0.605,0.02749475
0.6052,0.02809572
0.6054,0.02895443
0.6056,0.02941335
0.6058,0.02999365
0.606,0.03020387
0.6062,0.02935504
0.6064,0.03027568
0.6066,0.03050637
0.6068,0.03052902
0.607,0.03112262
0.6072,0.03021226
0.6074,0.03055907
0.6076,0.03104692
0.6078,0.02859522
0.608,0.0278852
0.6082,0.02861035
0.6084,0.0280015
0.6086,0.0277421
0.6088,0.02681612
0.609,0.02607213
0.6092,0.02336172
0.6094,0.02031576
0.6096,0.01940948
0.6098,0.01844818
0.61,0.01695892
0.6102,0.01744899
0.6104,0.01488881
0.6106,0.01267189
0.6108,0.009723863
0.611,0.00637974
0.6112,0.005195715
0.6114,0.003012853
0.6116,0.003278907
0.6118,0.00268812
0.612,0.0007693297
0.6122,-0.002928582
0.6124,-0.005535086
0.6126,-0.008222071
0.6128,-0.009594258
0.613,-0.01025523
0.6132,-0.01158558
0.6134,-0.01251623
0.6136,-0.01438158
0.6138,-0.01534503
0.614,-0.01636953
0.6142,-0.01783071
0.6144,-0.02015288
0.6146,-0.02130285
0.6148,-0.02278041
0.615,-0.02487707
0.6152,-0.02471849
0.6154,-0.02646886
0.6156,-0.02748719
0.6158,-0.02742495
0.616,-0.02763294
0.6162,-0.02786132
0.6164,-0.02783881
0.6166,-0.02707457
0.6168,-0.02669521
0.617,-0.02660125
0.6172,-0.02728776
0.6174,-0.0278409
0.6176,-0.02722092
0.6178,-0.02614826
0.618,-0.02627583
0.6182,-0.02553449
0.6184,-0.02595524
0.6186,-0.02454248
0.6188,-0.02239287
0.619,-0.01867625
0.6192,-0.01822927
0.6194,-0.01855638
0.6196,-0.01624311
0.6198,-0.015543
0.62,-0.0128295
0.6202,-0.01118296
0.6204,-0.01104533
0.6206,-0.009976887
0.6208,-0.009511481
0.621,-0.007474658
0.6212,-0.007488257
0.6214,-0.00623491
0.6216,-0.00436396
0.6218,-0.003841455
0.622,-0.001353382
0.6222,0.001637218
0.6224,0.004282099
0.6226,0.005621436
0.6228,0.006345032
0.623,0.007867474
0.6232,0.00843175
0.6234,0.01010859
0.6236,0.01328578
0.6238,0.01462621
0.624,0.01640863
0.6242,0.01885043
0.6244,0.02015392
0.6246,0.01925628
0.6248,0.02069474
0.625,0.02164167
0.6252,0.02271612
0.6254,0.02522216
0.6256,0.02478435
0.6258,0.02325124
0.626,0.02451777
0.6262,0.02505991
0.6264,0.02429554
0.6266,0.02460835
0.6268,0.02417899
0.627,0.02546119
0.6272,0.02616579
0.6274,0.02543378
0.6276,0.02535508
0.6278,0.02557146
0.628,0.0272602
0.6282,0.02754917
0.6284,0.02802564
0.6286,0.02827202
0.6288,0.02724317
0.629,0.0275237
0.6292,0.02582722
0.6294,0.02222939
0.6296,0.02058373
0.6298,0.01934522
0.63,0.01671162
0.6302,0.01346463
0.6304,0.01117114
0.6306,0.008956157
0.6308,0.00686759
0.631,0.004681316
0.6312,0.003467
0.6314,0.00347558
0.6316,0.002840597
0.6318,0.002156919
0.632,0.001580923
0.6322,-0.0003031527
0.6324,-0.003565203
0.6326,-0.005805322
0.6328,-0.008967521
0.633,-0.01231195
0.6332,-0.01284424
0.6334,-0.01439911
0.6336,-0.01553322
0.6338,-0.01589645
0.634,-0.0162809
0.6342,-0.01878838
0.6344,-0.02060325
0.6346,-0.02236556
0.6348,-0.02401682
0.635,-0.02459871
0.6352,-0.02569662
0.6354,-0.02553156
0.6356,-0.02632104
0.6358,-0.02712065
0.636,-0.02801431
0.6362,-0.03010572
0.6364,-0.02857831
0.6366,-0.0285651
0.6368,-0.02931231
0.637,-0.02878246
0.6372,-0.02960364
0.6374,-0.02981764
0.6376,-0.02903394
0.6378,-0.02747272
0.638,-0.02626473
0.6382,-0.02579454
0.6384,-0.02529089
0.6386,-0.02429736
0.6388,-0.02197963
0.639,-0.01969782
0.6392,-0.02005026
0.6394,-0.02013904
0.6396,-0.01802232
0.6398,-0.0158445
0.64,-0.01412229
0.6402,-0.01312144
0.6404,-0.01048869
0.6406,-0.008953695
0.6408,-0.008449574
0.641,-0.007076153
0.6412,-0.003728161
0.6414,-0.001376523
0.6416,0.001029394
0.6418,0.003490174
0.642,0.004427044
0.6422,0.003382643
0.6424,0.004259005
0.6426,0.007590854
0.6428,0.01099512
0.643,0.01307073
0.6432,0.01339923
0.6434,0.01412564
0.6436,0.01725546
0.6438,0.01876299
0.644,0.0188638
0.6442,0.02016121
0.6444,0.02140076
0.6446,0.02337176
0.6448,0.02476758
0.645,0.02399418
0.6452,0.0234792
0.6454,0.02470013
0.6456,0.02495066
0.6458,0.02483001
0.646,0.02543204
0.6462,0.02597219
0.6464,0.02686871
0.6466,0.02827008
0.6468,0.0282304
0.647,0.02863427
0.6472,0.02842652
0.6474,0.02631141
0.6476,0.02583303
0.6478,0.02525493
0.648,0.0239397
0.6482,0.02435054
0.6484,0.02419808
0.6486,0.0227691
0.6488,0.02263289
0.649,0.02214021
0.6492,0.02014783
0.6494,0.0175477
0.6496,0.01672502
0.6498,0.01769445
0.65,0.01645554
0.6502,0.01340932
0.6504,0.00907172
0.6506,0.006422849
0.6508,0.004761606
0.651,0.00530413
0.6512,0.00508166
0.6514,0.003088249
0.6516,0.0005768465
0.6518,-0.002064983
0.652,-0.002726031
0.6522,-0.003495933
0.6524,-0.006581692
0.6526,-0.007845693
0.6528,-0.008033193
0.653,-0.01106109
0.6532,-0.01333256
0.6534,-0.01474241
0.6536,-0.01722089
0.6538,-0.01809121
0.654,-0.02009643
0.6542,-0.02088118
0.6544,-0.02225807
0.6546,-0.02522306
0.6548,-0.02499901
0.655,-0.02684341
0.6552,-0.02857501
0.6554,-0.02989449
0.6556,-0.03054234
0.6558,-0.03058278
0.656,-0.03071641
0.6562,-0.0295286
0.6564,-0.02733555
0.6566,-0.0272975
0.6568,-0.02688241
0.657,-0.02684075
0.6572,-0.02679015
0.6574,-0.02657371
0.6576,-0.0267621
0.6578,-0.02598662
0.658,-0.02520291
0.6582,-0.02593337
0.6584,-0.02597237
0.6586,-0.02422197
0.6588,-0.02151418
0.659,-0.02099798
0.6592,-0.02151217
0.6594,-0.01897572
0.6596,-0.01876488
0.6598,-0.01721356
0.66,-0.01567225
0.6602,-0.01474313
0.6604,-0.01209831
0.6606,-0.01064751
0.6608,-0.008692989
0.661,-0.008384513
0.6612,-0.007231792
0.6614,-0.005285406
0.6616,-0.00424812
0.6618,-0.00241467
0.662,-0.0006192695
0.6622,0.0004828105
0.6624,0.001365086
0.6626,0.002270545
0.6628,0.005009951
0.663,0.007628372
0.6632,0.01051267
0.6634,0.01237562
0.6636,0.0133172
0.6638,0.01458261
0.664,0.01598766
0.6642,0.01750995
0.6644,0.01931374
0.6646,0.02128991
0.6648,0.02217383
0.665,0.02311737
0.6652,0.02315147
0.6654,0.02082769
0.6656,0.02145575
0.6658,0.0233866
0.666,0.02495406
0.6662,0.02503064
0.6664,0.02690068
0.6666,0.02721911
0.6668,0.02802842
0.667,0.0287228
0.6672,0.02637469
0.6674,0.02586462
0.6676,0.02650386
0.6678,0.02652078
0.668,0.02680461
0.6682,0.02673259
0.6684,0.02669305
0.6686,0.02721354
0.6688,0.02626205
0.669,0.02690147
0.6692,0.02576431
0.6694,0.02253419
0.6696,0.02051019
0.6698,0.01980388
0.67,0.01771981
0.6702,0.01601497
0.6704,0.01356899
0.6706,0.01001977
0.6708,0.007712169
0.671,0.006631343
0.6712,0.004836187
0.6714,0.004374228
0.6716,0.003692112
0.6718,0.002125069
0.672,0.001434397
0.6722,-0.0005191098
0.6724,-0.003397705
0.6726,-0.005928089
0.6728,-0.007454656
0.673,-0.008133939
0.6732,-0.009412798
0.6734,-0.009970575
0.6736,-0.01117172
0.6738,-0.01200224
0.674,-0.01403481
0.6742,-0.01688453
0.6744,-0.01964042
0.6746,-0.02048208
0.6748,-0.02065394
0.675,-0.02199269
0.6752,-0.02427055
0.6754,-0.02496876
0.6756,-0.02434931
0.6758,-0.02404039
0.676,-0.02507458
0.6762,-0.02660198
0.6764,-0.02749091
0.6766,-0.02811799
0.6768,-0.02657476
0.677,-0.02558006
0.6772,-0.02499555
0.6774,-0.02473903
0.6776,-0.02519162
0.6778,-0.02497915
0.678,-0.02403164
0.6782,-0.02327587
0.6784,-0.02296968
0.6786,-0.02340282
0.6788,-0.0237352
0.679,-0.02178333
0.6792,-0.01871035
0.6794,-0.01755129
0.6796,-0.01581126
0.6798,-0.01523939
0.68,-0.01431068
0.6802,-0.01252913
0.6804,-0.01024011
0.6806,-0.008568672
0.6808,-0.00924643
0.681,-0.007984823
0.6812,-0.006088883
0.6814,-0.003911844
0.6816,-0.001991658
0.6818,-0.0004443656
0.682,0.001272727
0.6822,0.002683193
0.6824,0.005044402
0.6826,0.008651403
0.6828,0.01132734
0.683,0.01384624
0.6832,0.01620914
0.6834,0.01749745
0.6836,0.01968843
0.6838,0.02027176
0.684,0.02120865
0.6842,0.02084643
0.6844,0.02117418
0.6846,0.02250963
0.6848,0.02503077
0.685,0.0263983
0.6852,0.02567138
0.6854,0.02596547
0.6856,0.02746109
0.6858,0.02824248
0.686,0.02794103
0.6862,0.02783824
0.6864,0.02913731
0.6866,0.02852423
0.6868,0.02740926
0.687,0.02766209
0.6872,0.02850016
0.6874,0.02722647
0.6876,0.02619457
0.6878,0.02551378
0.688,0.024323
0.6882,0.02361715
0.6884,0.02372765
0.6886,0.02386731
0.6888,0.02187273
0.689,0.01956568
0.6892,0.01671557
0.6894,0.0144346
0.6896,0.01287992
0.6898,0.01171408
0.69,0.01063014
0.6902,0.009302952
0.6904,0.008012657
0.6906,0.006889179
0.6908,0.006978481
0.691,0.005907058
0.6912,0.003651984
0.6914,0.001338306
0.6916,0.0006017926
0.6918,0.0005332169
0.692,-0.0008705573
0.6922,-0.002922217
0.6924,-0.004101322
0.6926,-0.004815338
0.6928,-0.007269918
0.693,-0.01098948
0.6932,-0.01284574
0.6934,-0.01270523
0.6936,-0.01392068
0.6938,-0.01423737
0.694,-0.01657016
0.6942,-0.01927314
0.6944,-0.02120991
0.6946,-0.02389153
0.6948,-0.02434292
0.695,-0.02463074
0.6952,-0.02533907
0.6954,-0.02558355
0.6956,-0.02675624
0.6958,-0.02830328
0.696,-0.02721163
0.6962,-0.02908983
0.6964,-0.03013061
0.6966,-0.02929558
0.6968,-0.02911405
0.697,-0.02963838
0.6972,-0.02973931
0.6974,-0.02898087
0.6976,-0.02898474
0.6978,-0.02752437
0.698,-0.02670927
0.6982,-0.02783074
0.6984,-0.02785504
0.6986,-0.02489492
0.6988,-0.02305793
0.699,-0.02227738
0.6992,-0.02081323
0.6994,-0.01938552
0.6996,-0.01606758
0.6998,-0.01481746
0.7,-0.01331003
0.7002,-0.01188954
0.7004,-0.009684145
0.7006,-0.008049043
0.7008,-0.006978598
0.701,-0.005291989
0.7012,-0.002408501
0.7014,-0.001706107
0.7016,-0.003147533
0.7018,-0.002014922
0.702,0.001187057
0.7022,0.003569648
0.7024,0.004945354
0.7026,0.006100253
0.7028,0.007646195
0.703,0.01034944
0.7032,0.01168332
0.7034,0.01297458
0.7036,0.01591243
0.7038,0.01910448
0.704,0.02064942
0.7042,0.0196437
0.7044,0.01987678
0.7046,0.02116629
0.7048,0.02264565
0.705,0.02294392
0.7052,0.02389709
0.7054,0.02319922
0.7056,0.02286814
0.7058,0.02432873
0.706,0.02712499
0.7062,0.03012769
0.7064,0.03142196
0.7066,0.03164388
0.7068,0.03002603
0.707,0.03064191
0.7072,0.03272988
0.7074,0.03175676
0.7076,0.02971906
0.7078,0.02935482
0.708,0.02756678
0.7082,0.02709736
0.7084,0.02601368
0.7086,0.02539068
0.7088,0.02474377
0.709,0.02364661
0.7092,0.02278109
0.7094,0.02284921
0.7096,0.02057623
0.7098,0.01822002
0.71,0.01580644
0.7102,0.01334188
0.7104,0.01131167
0.7106,0.01010273
0.7108,0.01004374
0.711,0.007708585
0.7112,0.007144935
0.7114,0.006012044
0.7116,0.003479645
0.7118,0.001876392
0.712,-0.0001720331
0.7122,-0.002493426
0.7124,-0.005928261
0.7126,-0.007309294
0.7128,-0.008884883
0.713,-0.01072216
0.7132,-0.01270854
0.7134,-0.0147779
0.7136,-0.01675878
0.7138,-0.01733284
0.714,-0.01707162
0.7142,-0.0187558
0.7144,-0.02099558
0.7146,-0.02201067
0.7148,-0.02206951
0.715,-0.02329127
0.7152,-0.02383736
0.7154,-0.0247433
0.7156,-0.02454242
0.7158,-0.02474569
0.716,-0.02614071
0.7162,-0.02592732
0.7164,-0.02617428
0.7166,-0.02678056
0.7168,-0.0269861
0.717,-0.02711788
0.7172,-0.02872096
0.7174,-0.02933836
0.7176,-0.0295318
0.7178,-0.02933237
0.718,-0.02853866
0.7182,-0.02730558
0.7184,-0.02634168
0.7186,-0.02656468
0.7188,-0.02526783
0.719,-0.02490092
0.7192,-0.02410402
0.7194,-0.02164373
0.7196,-0.01991914
0.7198,-0.01721237
0.72,-0.01431458
0.7202,-0.01211298
0.7204,-0.0116885
0.7206,-0.01091872
0.7208,-0.007996887
0.721,-0.004821913
0.7212,-0.002278156
0.7214,0.0001066602
0.7216,0.001559971
0.7218,0.002152433
0.722,0.003206223
0.7222,0.003278915
0.7224,0.00541002
0.7226,0.008399893
0.7228,0.009738253
0.723,0.01066976
0.7232,0.01169236
0.7234,0.01324811
0.7236,0.01458652
0.7238,0.01676318
0.724,0.017873
0.7242,0.01765968
0.7244,0.01911036
0.7246,0.02116978
0.7248,0.02355786
0.725,0.02561337
0.7252,0.02775576
0.7254,0.02922942
0.7256,0.02879947
0.7258,0.02768411
0.726,0.0266096
0.7262,0.02794648
0.7264,0.03026197
0.7266,0.03241428
0.7268,0.03309722
0.727,0.03101621
0.7272,0.03131795
0.7274,0.03123299
0.7276,0.02977963
0.7278,0.02863116
0.728,0.02853543
0.7282,0.02858004
0.7284,0.02804849
0.7286,0.0281384
0.7288,0.02859046
0.729,0.02676099
0.7292,0.02428499
0.7294,0.02032594
0.7296,0.01824724
0.7298,0.01728154
0.73,0.01589941
0.7302,0.01243292
0.7304,0.01045761
0.7306,0.008452054
0.7308,0.006803421
0.731,0.005004021
0.7312,0.003461672
0.7314,0.001104212
0.7316,-0.0001416679
0.7318,-0.0007775201
0.732,-0.002113558
0.7322,-0.004545189
0.7324,-0.00628206
0.7326,-0.008699036
0.7328,-0.01187638
0.733,-0.01235955
0.7332,-0.01407816
0.7334,-0.01606889
0.7336,-0.01679019
0.7338,-0.01679369
0.734,-0.01754198
0.7342,-0.01976206
0.7344,-0.02141786
0.7346,-0.02200804
0.7348,-0.02205058
0.735,-0.02307413
0.7352,-0.02440737
0.7354,-0.02553424
0.7356,-0.02641259
0.7358,-0.02716938
0.736,-0.02760326
0.7362,-0.02926394
0.7364,-0.03128138
0.7366,-0.03134539
0.7368,-0.03226979
0.737,-0.03308025
0.7372,-0.03245542
0.7374,-0.03273816
0.7376,-0.0327204
0.7378,-0.03149231
0.738,-0.03098435
0.7382,-0.03080306
0.7384,-0.03048513
0.7386,-0.02940137
0.7388,-0.02766522
0.739,-0.02680674
0.7392,-0.0255722
0.7394,-0.02225735
0.7396,-0.02048562
0.7398,-0.01789633
0.74,-0.0161757
0.7402,-0.01453287
0.7404,-0.01228355
0.7406,-0.01254792
0.7408,-0.01081936
0.741,-0.0085795
0.7412,-0.004766736
0.7414,-0.003180365
0.7416,-0.003032605
0.7418,-0.001646872
0.742,0.0006084683
0.7422,0.002762102
0.7424,0.005374744
0.7426,0.009354937
0.7428,0.01153839
0.743,0.01164745
0.7432,0.01305674
0.7434,0.0162386
0.7436,0.01899565
0.7438,0.02158638
0.744,0.02264749
0.7442,0.02283137
0.7444,0.02389496
0.7446,0.02531406
0.7448,0.02709335
0.745,0.02797992
0.7452,0.02755791
0.7454,0.02941781
0.7456,0.0285694
0.7458,0.02724308
0.746,0.02857836
0.7462,0.02924818
0.7464,0.0306527
0.7466,0.03043488
0.7468,0.03039054
0.747,0.02975531
0.7472,0.03076702
0.7474,0.03082615
0.7476,0.03020559
0.7478,0.03079131
0.748,0.03048296
0.7482,0.02934454
0.7484,0.02831955
0.7486,0.02602961
0.7488,0.02332242
0.749,0.02286938
0.7492,0.021845
0.7494,0.01941791
0.7496,0.01844789
0.7498,0.01613556
0.75,0.0147847
0.7502,0.01270277
0.7504,0.01035674
0.7506,0.007344118
0.7508,0.005194765
0.751,0.005223055
0.7512,0.004950609
0.7514,0.003130482
0.7516,0.002500155
0.7518,0.0006966157
0.752,-0.001568646
0.7522,-0.004517046
0.7524,-0.007320566
0.7526,-0.007774862
0.7528,-0.008409902
0.753,-0.00938467
0.7532,-0.01246954
0.7534,-0.01423453
0.7536,-0.01568215
0.7538,-0.01706864
0.754,-0.01970184
0.7542,-0.02297848
0.7544,-0.0252851
0.7546,-0.02395479
0.7548,-0.0239749
0.755,-0.02655825
0.7552,-0.02633725
0.7554,-0.02696371
0.7556,-0.02990175
0.7558,-0.03093688
0.756,-0.03067424
0.7562,-0.03203929
0.7564,-0.03172188
0.7566,-0.03291343
0.7568,-0.03231551
0.757,-0.03171448
0.7572,-0.03254426
0.7574,-0.03187932
0.7576,-0.0319223
0.7578,-0.03092906
0.758,-0.02979517
0.7582,-0.02787109
0.7584,-0.02830447
0.7586,-0.0273898
0.7588,-0.02510085
0.759,-0.02481936
0.7592,-0.02335281
0.7594,-0.0226288
0.7596,-0.02324121
0.7598,-0.02200749
0.76,-0.01951339
0.7602,-0.01758536
0.7604,-0.01545124
0.7606,-0.01410399
0.7608,-0.01353652
0.761,-0.01134133
0.7612,-0.007619001
0.7614,-0.004668757
0.7616,-0.003123295
0.7618,-0.001502016
0.762,0.0008152639
0.7622,0.004062281
0.7624,0.005565714
0.7626,0.00800587
0.7628,0.01011954
0.763,0.0103998
0.7632,0.0107637
0.7634,0.0141728
0.7636,0.01610251
0.7638,0.01810146
0.764,0.01981027
0.7642,0.02104216
0.7644,0.0229321
0.7646,0.02449714
0.7648,0.02629481
0.765,0.02771917
0.7652,0.02994292
0.7654,0.02962305
0.7656,0.0303691
0.7658,0.03128243
0.766,0.03161047
0.7662,0.03131056
0.7664,0.03105281
0.7666,0.03177605
0.7668,0.03275646
0.767,0.03205242
0.7672,0.02966725
0.7674,0.02984436
0.7676,0.03141752
0.7678,0.03248059
0.768,0.03087617
0.7682,0.02918756
0.7684,0.02814943
0.7686,0.02734947
0.7688,0.02641121
0.769,0.02475001
0.7692,0.0221817
0.7694,0.02058144
0.7696,0.01903209
0.7698,0.01877146
0.77,0.01728269
0.7702,0.015272
0.7704,0.01304591
0.7706,0.01148751
0.7708,0.0100647
0.771,0.006403394
0.7712,0.005744675
0.7714,0.005472826
0.7716,0.002013227
0.7718,0.001545564
0.772,0.0004092457
0.7722,-0.002737089
0.7724,-0.005956768
0.7726,-0.007918255
0.7728,-0.008916358
0.773,-0.01050622
0.7732,-0.01192343
0.7734,-0.01418728
0.7736,-0.01602529
0.7738,-0.01582765
0.774,-0.01854884
0.7742,-0.02060882
0.7744,-0.02099554
0.7746,-0.02439472
0.7748,-0.02773657
0.775,-0.02899905
0.7752,-0.02944503
0.7754,-0.02971688
0.7756,-0.03065435
0.7758,-0.03084306
0.776,-0.02946507
0.7762,-0.02971282
0.7764,-0.03088886
0.7766,-0.03079359
0.7768,-0.03108448
0.777,-0.03082784
0.7772,-0.02988019
0.7774,-0.02864733
0.7776,-0.02872448
0.7778,-0.02818891
0.778,-0.02772407
0.7782,-0.02750216
0.7784,-0.02819449
0.7786,-0.02750841
0.7788,-0.02692207
0.779,-0.02573597
0.7792,-0.02319312
0.7794,-0.02157321
0.7796,-0.0194537
0.7798,-0.01726104
0.78,-0.01566695
0.7802,-0.01206842
0.7804,-0.01094642
0.7806,-0.01088951
0.7808,-0.009736018
0.781,-0.007410962
0.7812,-0.005521698
0.7814,-0.003390871
0.7816,-0.0008193316
0.7818,0.0002695944
0.782,0.001489333
0.7822,0.003295147
0.7824,0.006485214
0.7826,0.009353191
0.7828,0.01227385
0.783,0.01414472
0.7832,0.01546226
0.7834,0.01712961
0.7836,0.01995869
0.7838,0.02033797
0.784,0.02089207
0.7842,0.02301174
0.7844,0.02544841
0.7846,0.02693641
0.7848,0.027505
0.785,0.03020647
0.7852,0.03238702
0.7854,0.03270894
0.7856,0.03278601
0.7858,0.03253037
0.786,0.03153628
0.7862,0.03050746
0.7864,0.03121163
0.7866,0.03160048
0.7868,0.03228044
0.787,0.03199226
0.7872,0.03013959
0.7874,0.02838147
0.7876,0.02782468
0.7878,0.02718009
0.788,0.02641804
0.7882,0.02405048
0.7884,0.02354601
0.7886,0.02264031
0.7888,0.02193766
0.789,0.02131464
0.7892,0.01963066
0.7894,0.01889628
0.7896,0.01737772
0.7898,0.01545202
0.79,0.01411062
0.7902,0.01292149
0.7904,0.01012497
0.7906,0.00864948
0.7908,0.008156301
0.791,0.005602666
0.7912,0.003224268
0.7914,0.002703864
0.7916,0.00161514
0.7918,0.0001789365
0.792,-0.0002672714
0.7922,-0.001417647
0.7924,-0.005429172
0.7926,-0.007217829
0.7928,-0.008386473
0.793,-0.01009418
0.7932,-0.01064875
0.7934,-0.01338931
0.7936,-0.01792696
0.7938,-0.02014231
0.794,-0.02089344
0.7942,-0.02244121
0.7944,-0.022936
0.7946,-0.02451435
0.7948,-0.02484796
0.795,-0.02685765
0.7952,-0.02768503
0.7954,-0.02791314
0.7956,-0.03012462
0.7958,-0.03073901
0.796,-0.03063994
0.7962,-0.029652
0.7964,-0.02975063
0.7966,-0.03037657
0.7968,-0.03089343
0.797,-0.03003817
0.7972,-0.03040805
0.7974,-0.02983947
0.7976,-0.02900958
0.7978,-0.02845669
0.798,-0.02855616
0.7982,-0.0282951
0.7984,-0.02865717
0.7986,-0.0275766
0.7988,-0.02501997
0.799,-0.02449556
0.7992,-0.02367493
0.7994,-0.02249641
0.7996,-0.02201582
0.7998,-0.0209154
0.8,-0.0197164
0.8002,-0.01714006
0.8004,-0.0156462
0.8006,-0.011804
0.8008,-0.01011918
0.801,-0.007807422
0.8012,-0.004462893
0.8014,-0.00216854
0.8016,-0.001259351
0.8018,-0.0008989322
0.802,0.001576763
0.8022,0.004556215
0.8024,0.005851904
0.8026,0.007972563
0.8028,0.0111283
0.803,0.01255267
0.8032,0.01303713
0.8034,0.01549907
0.8036,0.01899968
0.8038,0.02098768
0.804,0.02306413
0.8042,0.02429239
0.8044,0.0252138
0.8046,0.02822908
0.8048,0.03066519
0.805,0.03066013
0.8052,0.03059692
0.8054,0.02862726
0.8056,0.02831236
0.8058,0.02966709
0.806,0.02981803
0.8062,0.02925788
0.8064,0.03079936
0.8066,0.03295336
0.8068,0.03427927
0.807,0.03236368
0.8072,0.03120028
0.8074,0.03098143
0.8076,0.02954307
0.8078,0.02782533
0.808,0.02704477
0.8082,0.02787853
0.8084,0.02698033
0.8086,0.02521046
0.8088,0.0232293
0.809,0.02288896
0.8092,0.02215442
0.8094,0.02130039
0.8096,0.01971716
0.8098,0.01763087
0.81,0.01567324
0.8102,0.01365029
0.8104,0.01120668
0.8106,0.00858795
0.8108,0.007188445
0.811,0.005035122
0.8112,0.002862455
0.8114,0.001827439
0.8116,0.001120838
0.8118,-0.001246661
0.812,-0.003957082
0.8122,-0.006318684
0.8124,-0.008003342
0.8126,-0.008459503
0.8128,-0.009593122
0.813,-0.01099158
0.8132,-0.01295452
0.8134,-0.01483789
0.8136,-0.01560577
0.8138,-0.01713695
0.814,-0.0190986
0.8142,-0.02018718
0.8144,-0.02268421
0.8146,-0.02538662
0.8148,-0.0264734
0.815,-0.02719738
0.8152,-0.02713472
0.8154,-0.02843738
0.8156,-0.02816976
0.8158,-0.02922524
0.816,-0.02955614
0.8162,-0.02912271
0.8164,-0.0296448
0.8166,-0.03078147
0.8168,-0.03122118
0.817,-0.03046841
0.8172,-0.03001394
0.8174,-0.03002709
0.8176,-0.02921721
0.8178,-0.02643484
0.818,-0.02597944
0.8182,-0.02493585
0.8184,-0.02195714
0.8186,-0.0198772
0.8188,-0.01834188
0.819,-0.01763087
0.8192,-0.01547532
0.8194,-0.01349535
0.8196,-0.01435177
0.8198,-0.01356095
0.82,-0.01178886
0.8202,-0.01008814
0.8204,-0.008408335
0.8206,-0.008809906
0.8208,-0.008320896
0.821,-0.007929517
0.8212,-0.006448295
0.8214,-0.005417328
0.8216,-0.004148696
0.8218,-0.001808349
0.822,-0.000870107
0.8222,0.001249102
0.8224,0.003556117
0.8226,0.005007937
0.8228,0.006842961
0.823,0.009051986
0.8232,0.01161661
0.8234,0.01247868
0.8236,0.01548668
0.8238,0.01865542
0.824,0.01975391
0.8242,0.0211394
0.8244,0.02271018
0.8246,0.02497917
0.8248,0.02688639
0.825,0.02814753
0.8252,0.02856083
0.8254,0.0279003
0.8256,0.02833327
0.8258,0.02982466
0.826,0.02944576
0.8262,0.0294725
0.8264,0.0294214
0.8266,0.02922845
0.8268,0.02972417
0.827,0.02809497
0.8272,0.0281714
0.8274,0.02819619
0.8276,0.02758332
0.8278,0.02739773
0.828,0.02696248
0.8282,0.0263879
0.8284,0.0266341
0.8286,0.02602286
0.8288,0.02542416
0.829,0.02566537
0.8292,0.02241515
0.8294,0.0193729
0.8296,0.01797729
0.8298,0.0159314
0.83,0.01433775
0.8302,0.01296287
0.8304,0.01056854
0.8306,0.007853275
0.8308,0.005673072
0.831,0.004539866
0.8312,0.003291603
0.8314,0.002323997
0.8316,0.001348507
0.8318,0.001157304
0.832,0.000317423
0.8322,-0.002986815
0.8324,-0.005478539
0.8326,-0.008459183
0.8328,-0.01129912
0.833,-0.01240454
0.8332,-0.01355799
0.8334,-0.01514825
0.8336,-0.0156739
0.8338,-0.01829639
0.834,-0.02117149
0.8342,-0.02382673
0.8344,-0.02416571
0.8346,-0.02509754
0.8348,-0.02688343
0.835,-0.02797171
0.8352,-0.02799227
0.8354,-0.02773939
0.8356,-0.02659005
0.8358,-0.02633527
0.836,-0.02770496
0.8362,-0.02944037
0.8364,-0.03012741
0.8366,-0.03086087
0.8368,-0.03160794
0.837,-0.03086299
0.8372,-0.03129683
0.8374,-0.03103973
0.8376,-0.02985794
0.8378,-0.02962683
0.838,-0.02961945
0.8382,-0.02981902
0.8384,-0.02825059
0.8386,-0.02647178
0.8388,-0.02527249
0.839,-0.02279928
0.8392,-0.01948504
0.8394,-0.01830519
0.8396,-0.01822807
0.8398,-0.01614234
0.84,-0.01272837
0.8402,-0.01112253
0.8404,-0.0091798
0.8406,-0.007705532
0.8408,-0.007037867
0.841,-0.00513445
0.8412,-0.002332735
0.8414,-0.00122095
0.8416,0.0005092519
0.8418,0.001904171
0.842,0.00199128
0.8422,0.004199938
0.8424,0.007058517
0.8426,0.01024577
0.8428,0.01184604
0.843,0.01355021
0.8432,0.01473228
0.8434,0.01697802
0.8436,0.01827277
0.8438,0.01950831
0.844,0.02173843
0.8442,0.0220354
0.8444,0.02135594
0.8446,0.02242622
0.8448,0.02410364
0.845,0.0244898
0.8452,0.02529346
0.8454,0.02729194
0.8456,0.02681961
0.8458,0.02587983
0.846,0.02625812
0.8462,0.0278871
0.8464,0.02836677
0.8466,0.02891884
0.8468,0.02902237
0.847,0.029221
0.8472,0.03079266
0.8474,0.03072797
0.8476,0.03121242
0.8478,0.03098748
0.848,0.02893205
0.8482,0.02782877
0.8484,0.02846941
0.8486,0.02886317
0.8488,0.02631382
0.849,0.02262281
0.8492,0.02160518
0.8494,0.01900176
0.8496,0.01666695
0.8498,0.01434777
0.85,0.011981
0.8502,0.01033635
0.8504,0.008012823
0.8506,0.005947009
0.8508,0.003578694
0.851,0.001662148
0.8512,0.0009831786
0.8514,0.001185447
0.8516,0.0005856038
0.8518,-0.001317781
0.852,-0.004083259
0.8522,-0.004761048
0.8524,-0.006000201
0.8526,-0.008216187
0.8528,-0.009667309
0.853,-0.01163068
0.8532,-0.01142437
0.8534,-0.01306427
0.8536,-0.01671684
0.8538,-0.01733506
0.854,-0.01850583
0.8542,-0.0204212
0.8544,-0.02197725
0.8546,-0.02439041
0.8548,-0.02665637
0.855,-0.02815315
0.8552,-0.02906764
0.8554,-0.02968435
0.8556,-0.03097464
0.8558,-0.03146529
0.856,-0.03179792
0.8562,-0.0310191
0.8564,-0.03123783
0.8566,-0.03206637
0.8568,-0.03213637
0.857,-0.03145232
0.8572,-0.03109503
0.8574,-0.02893874
0.8576,-0.028413
0.8578,-0.02859491
0.858,-0.02897505
0.8582,-0.02807701
0.8584,-0.02752323
0.8586,-0.0260537
0.8588,-0.02435603
0.859,-0.02303385
0.8592,-0.02004712
0.8594,-0.01816725
0.8596,-0.0188549
0.8598,-0.01953202
0.86,-0.01615098
0.8602,-0.01402698
0.8604,-0.01174994
0.8606,-0.009809325
0.8608,-0.007548402
0.861,-0.007267419
0.8612,-0.005903059
0.8614,-0.003604751
0.8616,-0.002929045
0.8618,0.0007785052
0.862,0.003201976
0.8622,0.004959913
0.8624,0.008636817
0.8626,0.01080981
0.8628,0.01169337
0.863,0.01294548
0.8632,0.01492179
0.8634,0.01753499
0.8636,0.02020788
0.8638,0.02238872
0.864,0.02318268
0.8642,0.02505687
0.8644,0.02561411
0.8646,0.02740049
0.8648,0.02817598
0.865,0.02873163
0.8652,0.0291065
0.8654,0.02945351
0.8656,0.03048967
0.8658,0.03012176
0.866,0.03011245
0.8662,0.02946945
0.8664,0.02881213
0.8666,0.03019264
0.8668,0.03041465
0.867,0.0300683
0.8672,0.02948883
0.8674,0.02864871
0.8676,0.0271095
0.8678,0.02666284
0.868,0.0272178
0.8682,0.02793545
0.8684,0.02503079
0.8686,0.02164649
0.8688,0.02189159
0.869,0.02087295
0.8692,0.02028295
0.8694,0.01923775
0.8696,0.01871659
0.8698,0.0172702
0.87,0.01402483
0.8702,0.0129131
0.8704,0.01083454
0.8706,0.009225839
0.8708,0.008099206
0.871,0.00598229
0.8712,0.00413456
0.8714,0.002250775
0.8716,0.001608162
0.8718,0.001546314
0.872,0.0001091597
0.8722,-0.001651235
0.8724,-0.00412865
0.8726,-0.005343252
0.8728,-0.007006338
0.873,-0.009188568
0.8732,-0.01161056
0.8734,-0.01586934
0.8736,-0.01967475
0.8738,-0.02295979
0.874,-0.02232543
0.8742,-0.02242841
0.8744,-0.02389495
0.8746,-0.02556608
0.8748,-0.02816925
0.875,-0.0303936
0.8752,-0.03088314
0.8754,-0.03085477
0.8756,-0.03226782
0.8758,-0.03186748
0.876,-0.0306195
0.8762,-0.03048788
0.8764,-0.03132823
0.8766,-0.02991902
0.8768,-0.02915584
0.877,-0.02989712
0.8772,-0.03021583
0.8774,-0.03073605
0.8776,-0.03024283
0.8778,-0.02912124
0.878,-0.02928123
0.8782,-0.02893226
0.8784,-0.02684715
0.8786,-0.02533259
0.8788,-0.02242994
0.879,-0.0192727
0.8792,-0.0176457
0.8794,-0.01611323
0.8796,-0.01603413
0.8798,-0.01463294
0.88,-0.01221377
0.8802,-0.01035335
0.8804,-0.009309052
0.8806,-0.00906635
0.8808,-0.008287806
0.881,-0.006758947
0.8812,-0.004933425
0.8814,-0.004307618
0.8816,-0.001431653
0.8818,0.001044707
0.882,0.002749727
0.8822,0.005081711
0.8824,0.006894765
0.8826,0.009297637
0.8828,0.01211595
0.883,0.01485268
0.8832,0.01736667
0.8834,0.01842177
0.8836,0.0204298
0.8838,0.0212549
0.884,0.02324589
0.8842,0.02477673
0.8844,0.02503494
0.8846,0.02579531
0.8848,0.02590974
0.885,0.02627767
0.8852,0.02721738
0.8854,0.02779106
0.8856,0.02889804
0.8858,0.02993848
0.886,0.03278705
0.8862,0.03346928
0.8864,0.03381173
0.8866,0.03379523
0.8868,0.03252603
0.887,0.03198684
0.8872,0.03214319
0.8874,0.0306669
0.8876,0.02821494
0.8878,0.02851135
0.888,0.02900187
0.8882,0.02836522
0.8884,0.02724147
0.8886,0.02555545
0.8888,0.02420731
0.889,0.02366693
0.8892,0.02190728
0.8894,0.02092848
0.8896,0.02008128
0.8898,0.01914526
0.89,0.0165501
0.8902,0.01472986
0.8904,0.01219024
0.8906,0.009331793
0.8908,0.007805275
0.891,0.006811815
0.8912,0.005117828
0.8914,0.004175969
0.8916,0.002877575
0.8918,0.001013391
0.892,-0.0001908806
0.8922,-0.002799592
0.8924,-0.005069606
0.8926,-0.006562142
0.8928,-0.008653912
0.893,-0.009997971
0.8932,-0.01202262
0.8934,-0.01322402
0.8936,-0.01359245
0.8938,-0.01623787
0.894,-0.01959392
0.8942,-0.02185462
0.8944,-0.02280534
0.8946,-0.02330638
0.8948,-0.02369137
0.895,-0.0237808
0.8952,-0.02458847
0.8954,-0.02566784
0.8956,-0.02709715
0.8958,-0.02705306
0.896,-0.02587408
0.8962,-0.02713197
0.8964,-0.02870838
0.8966,-0.02930349
0.8968,-0.02967617
0.897,-0.02958358
0.8972,-0.02975712
0.8974,-0.02849553
0.8976,-0.02803173
0.8978,-0.02757334
0.898,-0.02678023
0.8982,-0.02705783
0.8984,-0.0274616
0.8986,-0.02782951
0.8988,-0.02745679
0.899,-0.02624369
0.8992,-0.02533506
0.8994,-0.02246502
0.8996,-0.02221132
0.8998,-0.02064433
0.9,-0.01860064
0.9002,-0.01680975
0.9004,-0.0163422
0.9006,-0.01489514
0.9008,-0.0124507
0.901,-0.009654832
0.9012,-0.009370186
0.9014,-0.01090446
0.9016,-0.00965848
0.9018,-0.006773003
0.902,-0.001817693
0.9022,0.0009300199
0.9024,0.002553975
0.9026,0.003723053
0.9028,0.007019264
0.903,0.01242482
0.9032,0.01436553
0.9034,0.01566678
0.9036,0.01715734
0.9038,0.01811771
0.904,0.01865046
0.9042,0.01781113
0.9044,0.01903253
0.9046,0.02105774
0.9048,0.02400957
0.905,0.02554183
0.9052,0.02499901
0.9054,0.02510403
0.9056,0.02653541
0.9058,0.02736214
0.906,0.02813509
0.9062,0.02965475
0.9064,0.02841229
0.9066,0.02893225
0.9068,0.03007612
0.907,0.03129476
0.9072,0.03203272
0.9074,0.0311906
0.9076,0.03006747
0.9078,0.03007826
0.908,0.029924
0.9082,0.03008572
0.9084,0.02776969
0.9086,0.02509265
0.9088,0.024521
0.909,0.02319088
0.9092,0.02212066
0.9094,0.02145574
0.9096,0.02259993
0.9098,0.0210542
0.91,0.01821245
0.9102,0.01531853
0.9104,0.01468614
0.9106,0.01314982
0.9108,0.01125651
0.911,0.008462317
0.9112,0.006803412
0.9114,0.006813946
0.9116,0.004592497
0.9118,0.001780478
0.912,0.0003603981
0.9122,-5.126924e-05
0.9124,-0.0008041562
0.9126,-0.003770632
0.9128,-0.007485692
0.913,-0.01034583
0.9132,-0.01246029
0.9134,-0.01366927
0.9136,-0.015286
0.9138,-0.01795942
0.914,-0.01924631
0.9142,-0.02189352
0.9144,-0.023403
0.9146,-0.02483476
0.9148,-0.0251461
0.915,-0.02515292
0.9152,-0.02615552
0.9154,-0.02742434
0.9156,-0.02782899
0.9158,-0.0294814
0.916,-0.03040681
0.9162,-0.02939189
0.9164,-0.0288452
0.9166,-0.0270796
0.9168,-0.02612858
0.917,-0.02722407
0.9172,-0.02770693
0.9174,-0.0269287
0.9176,-0.02664366
0.9178,-0.02823912
0.918,-0.0283847
0.9182,-0.02888602
0.9184,-0.02819591
0.9186,-0.02615567
0.9188,-0.02482683
0.919,-0.02417101
0.9192,-0.02372165
0.9194,-0.02158847
0.9196,-0.01788026
0.9198,-0.01682223
0.92,-0.01537537
0.9202,-0.01261149
0.9204,-0.0106335
0.9206,-0.01025448
0.9208,-0.008937047
0.921,-0.005908064
0.9212,-0.005310136
0.9214,-0.004469665
0.9216,-0.003625119
0.9218,-0.001300837
0.922,0.002953943
0.9222,0.005004942
0.9224,0.005234417
0.9226,0.007214812
0.9228,0.007917759
0.923,0.009050062
0.9232,0.01120321
0.9234,0.0144091
0.9236,0.01743738
0.9238,0.02046254
0.924,0.02097532
0.9242,0.02142374
0.9244,0.02363384
0.9246,0.02355391
0.9248,0.02429236
0.925,0.02623474
0.9252,0.02756577
0.9254,0.02779212
0.9256,0.02893618
0.9258,0.0291234
0.926,0.02846043
0.9262,0.02880219
0.9264,0.02784331
0.9266,0.02793314
0.9268,0.02834739
0.927,0.02798762
0.9272,0.02870077
0.9274,0.02807402
0.9276,0.0290956
0.9278,0.03044626
0.928,0.03007511
0.9282,0.03012042
0.9284,0.02786453
0.9286,0.02485533
0.9288,0.02481879
0.929,0.02379482
0.9292,0.02207392
0.9294,0.02199903
0.9296,0.01970374
0.9298,0.01695724
0.93,0.01454489
0.9302,0.01236913
0.9304,0.01227378
0.9306,0.01201414
0.9308,0.01017835
0.931,0.008605273
0.9312,0.007752528
0.9314,0.005969623
0.9316,0.005080918
0.9318,0.004169074
0.932,0.001911415
0.9322,0.0009921889
0.9324,-0.001243037
0.9326,-0.003784962
0.9328,-0.0063461
0.933,-0.008811735
0.9332,-0.00989935
0.9334,-0.01176282
0.9336,-0.01509396
0.9338,-0.01799579
0.934,-0.02012344
0.9342,-0.02237074
0.9344,-0.02440481
0.9346,-0.02485378
0.9348,-0.02566243
0.935,-0.02812188
0.9352,-0.02998359
0.9354,-0.03038807
0.9356,-0.03145745
0.9358,-0.03154734
0.936,-0.03192174
0.9362,-0.03343647
0.9364,-0.03415434
0.9366,-0.03634953
0.9368,-0.03715459
0.937,-0.0367961
0.9372,-0.03639189
0.9374,-0.03433799
0.9376,-0.0331667
0.9378,-0.03204102
0.938,-0.03157015
0.9382,-0.0300021
0.9384,-0.02851505
0.9386,-0.02808239
0.9388,-0.0264807
0.939,-0.0245428
0.9392,-0.02281557
0.9394,-0.02177333
0.9396,-0.01891868
0.9398,-0.01725955
0.94,-0.01553897
0.9402,-0.01275392
0.9404,-0.01055521
0.9406,-0.009129854
0.9408,-0.008081936
0.941,-0.007083624
0.9412,-0.004512509
0.9414,-0.003008995
0.9416,-0.002986538
0.9418,-0.001107697
0.942,8.546678e-05
0.9422,0.001933927
0.9424,0.0025283
0.9426,0.004726372
0.9428,0.006731199
0.943,0.008905713
0.9432,0.01197155
0.9434,0.01400965
0.9436,0.01541286
0.9438,0.01713147
0.944,0.02040565
0.9442,0.02299899
0.9444,0.02382644
0.9446,0.02516681
0.9448,0.02627268
0.945,0.02719299
0.9452,0.02871761
0.9454,0.02938874
0.9456,0.02978187
0.9458,0.03019408
0.946,0.0313191
0.9462,0.0317111
0.9464,0.03118222
0.9466,0.03123851
0.9468,0.03092714
0.947,0.03086745
0.9472,0.03000296
0.9474,0.02999043
0.9476,0.03011162
0.9478,0.02923439
0.948,0.02888479
0.9482,0.0268781
0.9484,0.02598064
0.9486,0.02641564
0.9488,0.02633764
0.949,0.02570917
0.9492,0.02447136
0.9494,0.02258863
0.9496,0.02115053
0.9498,0.01810823
0.95,0.01648796
0.9502,0.01554582
0.9504,0.01400185
0.9506,0.01090153
0.9508,0.009142724
0.951,0.007032028
0.9512,0.006280844
0.9514,0.004205661
0.9516,-0.0001972312
0.9518,-0.0001725399
0.952,-0.001296322
0.9522,-0.00224701
0.9524,-0.003174222
0.9526,-0.004613508
0.9528,-0.006476384
0.953,-0.009316423
0.9532,-0.01215154
0.9534,-0.01562595
0.9536,-0.01972674
0.9538,-0.02127973
0.954,-0.02314376
0.9542,-0.02423022
0.9544,-0.02287995
0.9546,-0.02333125
0.9548,-0.02509735
0.955,-0.02531998
0.9552,-0.02619098
0.9554,-0.02778555
0.9556,-0.02793235
0.9558,-0.02696044
0.956,-0.0276924
0.9562,-0.02899227
0.9564,-0.03021208
0.9566,-0.0299645
0.9568,-0.02924999
0.957,-0.03011863
0.9572,-0.03133455
0.9574,-0.03222856
0.9576,-0.03063929
0.9578,-0.0308078
0.958,-0.02968246
0.9582,-0.02891884
0.9584,-0.02758092
0.9586,-0.02702715
0.9588,-0.0274855
0.959,-0.02539713
0.9592,-0.02331266
0.9594,-0.02105053
0.9596,-0.01988651
0.9598,-0.01777463
0.96,-0.01594266
0.9602,-0.01404861
0.9604,-0.01364073
0.9606,-0.01174217
0.9608,-0.009051237
0.961,-0.006757473
0.9612,-0.004546301
0.9614,-0.003545827
0.9616,-0.003912728
0.9618,-0.001937245
0.962,0.001874552
0.9622,0.005900019
0.9624,0.008230492
0.9626,0.009369065
0.9628,0.01174527
0.963,0.01409039
0.9632,0.01530101
0.9634,0.01817744
0.9636,0.02022848
0.9638,0.02264599
0.964,0.02371108
0.9642,0.02478851
0.9644,0.02542535
0.9646,0.02764961
0.9648,0.03126737
0.965,0.0307159
0.9652,0.02907232
0.9654,0.02899173
0.9656,0.02981084
0.9658,0.03031873
0.966,0.03093307
0.9662,0.03040342
0.9664,0.02878367
0.9666,0.0282055
0.9668,0.02708222
0.967,0.0262551
0.9672,0.02627208
0.9674,0.02692743
0.9676,0.02810111
0.9678,0.02542012
0.968,0.02480295
0.9682,0.02457903
0.9684,0.02274601
0.9686,0.02211408
0.9688,0.02021888
0.969,0.01870216
0.9692,0.01622145
0.9694,0.01547993
0.9696,0.01421233
0.9698,0.01249247
0.97,0.0100216
0.9702,0.008317032
0.9704,0.006889614
0.9706,0.003965354
0.9708,0.00194506
0.971,-0.001405739
0.9712,-0.001420196
0.9714,-0.002610984
0.9716,-0.004456897
0.9718,-0.004668272
0.972,-0.005250001
0.9722,-0.007376291
0.9724,-0.009526545
0.9726,-0.01063503
0.9728,-0.01202002
0.973,-0.01370387
0.9732,-0.01350248
0.9734,-0.01428552
0.9736,-0.01632522
0.9738,-0.01625966
0.974,-0.0172149
0.9742,-0.01926431
0.9744,-0.0200948
0.9746,-0.02120758
0.9748,-0.02309952
0.975,-0.02468782
0.9752,-0.02447366
0.9754,-0.02428112
0.9756,-0.02463734
0.9758,-0.02485441
0.976,-0.02632732
0.9762,-0.02669896
0.9764,-0.02701022
0.9766,-0.02744947
0.9768,-0.02665514
0.977,-0.02576517
0.9772,-0.0275405
0.9774,-0.02751643
0.9776,-0.02608191
0.9778,-0.02639018
0.978,-0.02685047
0.9782,-0.0265754
0.9784,-0.02484363
0.9786,-0.02408008
0.9788,-0.02356106
0.979,-0.02117902
0.9792,-0.01926749
0.9794,-0.01855174
0.9796,-0.01597276
0.9798,-0.01322631
0.98,-0.01170303
0.9802,-0.01100686
0.9804,-0.00992179
0.9806,-0.007070165
0.9808,-0.005219058
0.981,-0.004773149
0.9812,-0.003335207
0.9814,-0.00335668
0.9816,-0.003555078
0.9818,-0.002382959
0.982,0.000990788
0.9822,0.004172371
0.9824,0.008137151
0.9826,0.01225928
0.9828,0.01400938
0.983,0.01459015
0.9832,0.01698543
0.9834,0.01879602
0.9836,0.01991235
0.9838,0.02239439
0.984,0.02379672
0.9842,0.0246081
0.9844,0.02604557
0.9846,0.02606113
0.9848,0.0270932
0.985,0.02799181
0.9852,0.02913075
0.9854,0.02871374
0.9856,0.02926857
0.9858,0.02998085
0.986,0.03031097
0.9862,0.0299452
0.9864,0.02927651
0.9866,0.02994653
0.9868,0.02965523
0.987,0.02858939
0.9872,0.02741783
0.9874,0.02884603
0.9876,0.02831175
0.9878,0.02978118
0.988,0.0294247
0.9882,0.02774538
0.9884,0.02745745
0.9886,0.02631899
0.9888,0.02674413
0.989,0.02461682
0.9892,0.02097168
0.9894,0.01922954
0.9896,0.01848841
0.9898,0.01724128
0.99,0.01450983
0.9902,0.01177816
0.9904,0.01057955
0.9906,0.009253833
0.9908,0.007432652
0.991,0.006901955
0.9912,0.003938078
0.9914,0.003541191
0.9916,0.003835225
0.9918,0.001386103
0.992,-0.0002976792
0.9922,-0.0007216564
0.9924,-0.004280422
0.9926,-0.005324165
0.9928,-0.006562933
0.993,-0.007058733
0.9932,-0.009423412
0.9934,-0.01150376
0.9936,-0.01308277
0.9938,-0.01451482
0.994,-0.01674649
0.9942,-0.01919816
0.9944,-0.02105764
0.9946,-0.0229682
0.9948,-0.02603042
0.995,-0.02552625
0.9952,-0.02653876
0.9954,-0.02789905
0.9956,-0.02826242
0.9958,-0.02833829
0.996,-0.02845354
0.9962,-0.02862863
0.9964,-0.02909364
0.9966,-0.02986958
0.9968,-0.03169202
0.997,-0.03320279
0.9972,-0.03087807
0.9974,-0.03015161
0.9976,-0.02871679
0.9978,-0.02682914
0.998,-0.02709377
0.9982,-0.028557
0.9984,-0.02771588
0.9986,-0.02645325
0.9988,-0.02547253
0.999,-0.02347504
0.9992,-0.02063741
0.9994,-0.01999485
0.9996,-0.0192899
0.9998,-0.01720947
1.0,-0.01461443
1.0002,-0.01202958
1.0004,-0.01009446
1.0006,-0.009925079
1.0008,-0.008170851
1.001,-0.007599796
1.0012,-0.00765107
1.0014,-0.006242637
1.0016,-0.005477013
1.0018,-0.00379602
1.002,-0.000498849
1.0022,0.001443857
1.0024,0.003376038
1.0026,0.006667989
1.0028,0.007425545
1.003,0.007529574
1.0032,0.009125893
1.0034,0.0119722
1.0036,0.01366534
1.0038,0.01574007
1.004,0.01776666
1.0042,0.02111403
1.0044,0.02317421
1.0046,0.02311313
1.0048,0.02530848
1.005,0.02780997
1.0052,0.02739797
1.0054,0.02683432
1.0056,0.02702574
1.0058,0.02825329
1.006,0.0297703
1.0062,0.03055912
1.0064,0.03010606
1.0066,0.03049568
1.0068,0.03154974
1.007,0.03199459
1.0072,0.03228766
1.0074,0.03184114
1.0076,0.03057354
1.0078,0.03036736
1.008,0.03015888
1.0082,0.02938679
1.0084,0.02899333
1.0086,0.02829203
1.0088,0.02506342
1.009,0.02324096
1.0092,0.0217078
1.0094,0.02039763
1.0096,0.01970778
1.0098,0.01884757
1.01,0.01782824
1.0102,0.01522827
1.0104,0.01266818
1.0106,0.01073136
1.0108,0.008105642
1.011,0.006213615
1.0112,0.004932956
1.0114,0.00395851
1.0116,0.00225571
1.0118,0.0001338765
1.012,-0.002102946
1.0122,-0.003910074
1.0124,-0.00593368
1.0126,-0.008101679
1.0128,-0.01109073
1.013,-0.012654
1.0132,-0.0133117
1.0134,-0.01371275
1.0136,-0.01579092
1.0138,-0.01684896
1.014,-0.01850205
1.0142,-0.02146532
1.0144,-0.02326734
1.0146,-0.02524652
1.0148,-0.02683905
1.015,-0.02756245
1.0152,-0.02884216
1.0154,-0.03007394
1.0156,-0.03007841
1.0158,-0.02818345
1.016,-0.0292047
1.0162,-0.03045094
1.0164,-0.0307374
1.0166,-0.03059367
1.0168,-0.03176344
1.017,-0.03208509
1.0172,-0.03194887
1.0174,-0.03103683
1.0176,-0.03157254
1.0178,-0.03078046
1.018,-0.02976622
1.0182,-0.02999096
1.0184,-0.02962428
1.0186,-0.02846146
1.0188,-0.0283031
1.019,-0.02734122
1.0192,-0.02524848
1.0194,-0.02297611
1.0196,-0.02216921
1.0198,-0.01848264
1.02,-0.0162206
1.0202,-0.0147256
1.0204,-0.01245823
1.0206,-0.01019494
1.0208,-0.009014062
1.021,-0.006132987
1.0212,-0.003140025
1.0214,-0.0003784704
1.0216,0.001168459
1.0218,0.003473527
1.022,0.004680384
1.0222,0.007018977
1.0224,0.007782578
1.0226,0.01021158
1.0228,0.0118378
1.023,0.01268982
1.0232,0.01444951
1.0234,0.01510972
1.0236,0.01753977
1.0238,0.01830634
1.024,0.02073899
1.0242,0.0222827
1.0244,0.02277205
1.0246,0.02489336
1.0248,0.02543126
1.025,0.02518219
1.0252,0.02707449
1.0254,0.02899441
1.0256,0.02985922
1.0258,0.02972156
1.026,0.02989526
1.0262,0.0317872
1.0264,0.03359892
1.0266,0.0340886
1.0268,0.03271009
1.027,0.03255099
1.0272,0.03229432
1.0274,0.03242628
1.0276,0.03128185
1.0278,0.02964895
1.028,0.03029785
1.0282,0.02981215
1.0284,0.02725255
1.0286,0.02676203
1.0288,0.02692021
1.029,0.02557968
1.0292,0.02324913
1.0294,0.0194842
1.0296,0.02039294
1.0298,0.02088936
1.03,0.01879028
1.0302,0.0156706
1.0304,0.01373638
1.0306,0.01155824
1.0308,0.01027488
1.031,0.007749575
1.0312,0.004529466
1.0314,0.003028786
1.0316,0.001602593
1.0318,-1.111556e-05
1.032,-0.002285247
1.0322,-0.003701106
1.0324,-0.005892101
1.0326,-0.008892805
1.0328,-0.009094614
1.033,-0.009262184
1.0332,-0.01246196
1.0334,-0.01381476
1.0336,-0.01493888
1.0338,-0.01775732
1.034,-0.02132046
1.0342,-0.02188045
1.0344,-0.02381176
1.0346,-0.02516681
1.0348,-0.02792733
1.035,-0.02789219
1.0352,-0.02909221
1.0354,-0.02987108
1.0356,-0.03124281
1.0358,-0.03151822
1.036,-0.03224934
1.0362,-0.03254959
1.0364,-0.03151481
1.0366,-0.03063438
1.0368,-0.03068121
1.037,-0.03150051
1.0372,-0.03259142
1.0374,-0.03295497
1.0376,-0.03185701
1.0378,-0.03179971
1.038,-0.03177858
1.0382,-0.03005321
1.0384,-0.02844406
1.0386,-0.02803467
1.0388,-0.02793862
1.039,-0.02534977
1.0392,-0.02352012
1.0394,-0.02229774
1.0396,-0.02037187
1.0398,-0.01900364
1.04,-0.01846113
1.0402,-0.01654402
1.0404,-0.01348591
1.0406,-0.0115342
1.0408,-0.009092814
1.041,-0.007252942
1.0412,-0.006593467
1.0414,-0.005148185
1.0416,-0.003161519
1.0418,-0.001223798
1.042,0.001026791
1.0422,0.003495095
1.0424,0.005720587
1.0426,0.007897292
1.0428,0.009955564
1.043,0.01010998
1.0432,0.01175177
1.0434,0.01534727
1.0436,0.01917014
1.0438,0.02170251
1.044,0.02352183
1.0442,0.02465994
1.0444,0.02537046
1.0446,0.02478464
1.0448,0.02599627
1.045,0.02972039
1.0452,0.02970662
1.0454,0.02831715
1.0456,0.02886527
1.0458,0.02921743
1.046,0.03103964
1.0462,0.0319371
1.0464,0.0317075
1.0466,0.03042216
1.0468,0.0302886
1.047,0.03051974
1.0472,0.03060519
1.0474,0.03148245
1.0476,0.03040936
1.0478,0.02986927
1.048,0.0295704
1.0482,0.03052049
1.0484,0.02986601
1.0486,0.02936784
1.0488,0.02843931
1.049,0.0257581
1.0492,0.02382513
1.0494,0.02037957
1.0496,0.0180075
1.0498,0.01683963
1.05,0.01614341
1.0502,0.01358305
1.0504,0.01030841
1.0506,0.009128187
1.0508,0.007528012
1.051,0.006229586
1.0512,0.004608765
1.0514,0.002004324
1.0516,2.437548e-05
1.0518,-0.001378536
1.052,-0.004018146
1.0522,-0.006520696
1.0524,-0.007336934
1.0526,-0.008205632
1.0528,-0.01110852
1.053,-0.01317124
1.0532,-0.01452328
1.0534,-0.01589353
1.0536,-0.01771509
1.0538,-0.02009316
1.054,-0.02088941
1.0542,-0.02216544
1.0544,-0.02371826
1.0546,-0.02530518
1.0548,-0.02696029
1.055,-0.02614607
1.0552,-0.02686457
1.0554,-0.02791729
1.0556,-0.02867928
1.0558,-0.0300237
1.056,-0.03025011
1.0562,-0.03060294
1.0564,-0.03137537
1.0566,-0.03052653
1.0568,-0.02953494
1.057,-0.02977596
1.0572,-0.02746228
1.0574,-0.02711969
1.0576,-0.02738088
1.0578,-0.02777537
1.058,-0.02775235
1.0582,-0.02738524
1.0584,-0.02594229
1.0586,-0.02601074
1.0588,-0.02487797
1.059,-0.02457151
1.0592,-0.02498014
1.0594,-0.02361367
1.0596,-0.02279402
1.0598,-0.02153299
1.06,-0.01798498
1.0602,-0.01571672
1.0604,-0.01442758
1.0606,-0.0140016
1.0608,-0.01217353
1.061,-0.0108451
1.0612,-0.009975452
1.0614,-0.007831926
1.0616,-0.004746357
1.0618,-0.002229746
1.062,0.00124181
1.0622,0.003671259
1.0624,0.005133365
1.0626,0.007003366
1.0628,0.009463994
1.063,0.01263485
1.0632,0.01524937
1.0634,0.0172966
1.0636,0.01866878
1.0638,0.02107996
1.064,0.02240688
1.0642,0.02187997
1.0644,0.02411715
1.0646,0.02606317
1.0648,0.02629749
1.065,0.02858056
1.0652,0.03012596
1.0654,0.02915112
1.0656,0.02752146
1.0658,0.02694152
1.066,0.02887449
1.0662,0.03229804
1.0664,0.03320395
1.0666,0.03206325
1.0668,0.03149113
1.067,0.03049674
1.0672,0.03200426
1.0674,0.03243244
1.0676,0.0318756
1.0678,0.02971177
1.068,0.02943592
1.0682,0.03151098
1.0684,0.0299154
1.0686,0.02776531
1.0688,0.02719124
1.069,0.0247782
1.0692,0.02256353
1.0694,0.02015819
1.0696,0.01922863
1.0698,0.01929448
1.07,0.0182237
1.0702,0.01485999
1.0704,0.01218333
1.0706,0.009457817
1.0708,0.007396571
1.071,0.007558506
1.0712,0.00545148
1.0714,0.004629972
1.0716,0.004834106
1.0718,0.002048052
1.072,-0.001171246
1.0722,-0.003075048
1.0724,-0.003506818
1.0726,-0.004313484
1.0728,-0.006368551
1.073,-0.008028987
1.0732,-0.01068478
1.0734,-0.01333812
1.0736,-0.01626261
1.0738,-0.01865689
1.074,-0.02099374
1.0742,-0.02240053
1.0744,-0.02278016
1.0746,-0.02371938
1.0748,-0.02614544
1.075,-0.02694263
1.0752,-0.02752321
1.0754,-0.02808912
1.0756,-0.02889714
1.0758,-0.03045025
1.076,-0.02974911
1.0762,-0.02819114
1.0764,-0.02804404
1.0766,-0.02722115
1.0768,-0.02785098
1.077,-0.02969715
1.0772,-0.03050329
1.0774,-0.02907871
1.0776,-0.02925559
1.0778,-0.02910035
1.078,-0.02782019
1.0782,-0.02696727
1.0784,-0.02697735
1.0786,-0.0258216
1.0788,-0.02414126
1.079,-0.02237424
1.0792,-0.01943319
1.0794,-0.01903629
1.0796,-0.01783516
1.0798,-0.01503346
1.08,-0.01355098
1.0802,-0.0124401
1.0804,-0.01144999
1.0806,-0.009885501
1.0808,-0.007670215
1.081,-0.005407289
1.0812,-0.004077533
1.0814,-0.001822255
1.0816,0.0006552817
1.0818,0.00354697
1.082,0.006369872
1.0822,0.007881047
1.0824,0.009176716
1.0826,0.01087337
1.0828,0.01158124
1.083,0.01225721
1.0832,0.01486366
1.0834,0.01627998
1.0836,0.01726981
1.0838,0.01860806
1.084,0.01963821
1.0842,0.0208456
1.0844,0.02265449
1.0846,0.02385366
1.0848,0.02503371
1.085,0.02636494
1.0852,0.02662566
1.0854,0.02703342
1.0856,0.0282291
1.0858,0.02837343
1.086,0.028542
1.0862,0.02905929
1.0864,0.02819264
1.0866,0.02723067
1.0868,0.02663525
1.087,0.02707769
1.0872,0.02743761
1.0874,0.02707776
1.0876,0.02501534
1.0878,0.02477625
1.088,0.0246763
1.0882,0.02380395
1.0884,0.02369621
1.0886,0.02140172
1.0888,0.01791598
1.089,0.01845882
1.0892,0.01832843
1.0894,0.01758341
1.0896,0.018277
1.0898,0.01678864
1.09,0.01382015
1.0902,0.01132806
1.0904,0.01053562
1.0906,0.009031871
1.0908,0.006232989
1.091,0.004542366
1.0912,0.003411926
1.0914,0.002830828
1.0916,0.003056746
1.0918,0.0008217645
1.092,-0.002150599
1.0922,-0.006202169
1.0924,-0.006970814
1.0926,-0.007959303
1.0928,-0.0118476
1.093,-0.01260639
1.0932,-0.0127109
1.0934,-0.01666605
1.0936,-0.01933328
1.0938,-0.02048854
1.094,-0.02340209
1.0942,-0.0238643
1.0944,-0.0234961
1.0946,-0.02494157
1.0948,-0.02552305
1.095,-0.02812236
1.0952,-0.02851918
1.0954,-0.02802362
1.0956,-0.02927164
1.0958,-0.02968189
1.096,-0.02887664
1.0962,-0.02845941
1.0964,-0.02870861
1.0966,-0.02931922
1.0968,-0.0291054
1.097,-0.02919361
1.0972,-0.02857631
1.0974,-0.02819237
1.0976,-0.0286773
1.0978,-0.02892265
1.098,-0.02799628
1.0982,-0.02786365
1.0984,-0.02692561
1.0986,-0.02490673
1.0988,-0.02441125
1.099,-0.02408955
1.0992,-0.02174903
1.0994,-0.01840396
1.0996,-0.01613747
1.0998,-0.01520451
1.1,-0.01320286
1.1002,-0.01121504
1.1004,-0.008693138
1.1006,-0.007264907
1.1008,-0.006482474
1.101,-0.004885525
1.1012,-0.001994089
1.1014,-0.0001733534
1.1016,0.0005922233
1.1018,0.001040668
1.102,0.004421035
1.1022,0.006210663
1.1024,0.006480421
1.1026,0.008065123
1.1028,0.01058305
1.103,0.01297522
1.1032,0.01431182
1.1034,0.01467367
1.1036,0.01619489
1.1038,0.0170957
1.104,0.01684979
1.1042,0.01870794
1.1044,0.02162718
1.1046,0.02177414
1.1048,0.02133799
1.105,0.02196129
1.1052,0.02323112
1.1054,0.02451467
1.1056,0.02388026
1.1058,0.02445802
1.106,0.02469715
1.1062,0.02654234
1.1064,0.02781863
1.1066,0.0270572
1.1068,0.02672082
1.107,0.02788335
1.1072,0.02888363
1.1074,0.02897367
1.1076,0.02905045
1.1078,0.02763449
1.108,0.02662664
1.1082,0.02534998
1.1084,0.02562247
1.1086,0.02541386
1.1088,0.02410099
1.109,0.02194439
1.1092,0.02013392
1.1094,0.01830114
1.1096,0.01670437
1.1098,0.01540653
1.11,0.01517034
1.1102,0.01329232
1.1104,0.01167417
1.1106,0.01003388
1.1108,0.008300815
1.111,0.006365417
1.1112,0.006103934
1.1114,0.006408985
1.1116,0.005223121
1.1118,0.003121995
1.112,0.00128969
1.1122,-0.0002125278
1.1124,-0.003589717
1.1126,-0.006169297
1.1128,-0.007390792
1.113,-0.008135666
1.1132,-0.01077097
1.1134,-0.01461831
1.1136,-0.01492317
1.1138,-0.01458476
1.114,-0.01600005
1.1142,-0.01661405
1.1144,-0.01925816
1.1146,-0.02153637
1.1148,-0.02315713
1.115,-0.02524672
1.1152,-0.02685979
1.1154,-0.02879735
1.1156,-0.03012226
1.1158,-0.03038042
1.116,-0.03189289
1.1162,-0.03164211
1.1164,-0.03204624
1.1166,-0.0298553
1.1168,-0.02912275
1.117,-0.02856735
1.1172,-0.02747386
1.1174,-0.02774517
1.1176,-0.02719486
1.1178,-0.02680676
1.118,-0.02722913
1.1182,-0.02796436
1.1184,-0.02744594
1.1186,-0.02613094
1.1188,-0.02596243
1.119,-0.02396001
1.1192,-0.02235677
1.1194,-0.02044405
1.1196,-0.02001631
1.1198,-0.0178439
1.12,-0.01468578
1.1202,-0.01276785
1.1204,-0.01165076
1.1206,-0.00968328
1.1208,-0.007438764
1.121,-0.004278132
1.1212,-0.0007087875
1.1214,0.001112973
1.1216,0.002757142
1.1218,0.003434117
1.122,0.004119907
1.1222,0.006049944
1.1224,0.008763287
1.1226,0.01081736
1.1228,0.01060565
1.123,0.01128678
1.1232,0.01156126
1.1234,0.01216792
1.1236,0.01406193
1.1238,0.01723984
1.124,0.01871947
1.1242,0.02039051
1.1244,0.02021356
1.1246,0.02125217
1.1248,0.02264058
1.125,0.02213469
1.1252,0.02363342
1.1254,0.02611391
1.1256,0.02749099
1.1258,0.02602349
1.126,0.02669924
1.1262,0.02638317
1.1264,0.02628906
1.1266,0.02774686
1.1268,0.02920793
1.127,0.02943307
1.1272,0.02891675
1.1274,0.0287779
1.1276,0.02718088
1.1278,0.02566455
1.128,0.02599125
1.1282,0.02614836
1.1284,0.02600953
1.1286,0.0248496
1.1288,0.02547202
1.129,0.02454061
1.1292,0.02287034
1.1294,0.02066815
1.1296,0.01772757
1.1298,0.01609941
1.13,0.01455545
1.1302,0.01329811
1.1304,0.01162669
1.1306,0.01035711
1.1308,0.009306807
1.131,0.009078588
1.1312,0.008493097
1.1314,0.006865288
1.1316,0.004742788
1.1318,0.002465105
1.132,-0.0002568917
1.1322,-0.003101523
1.1324,-0.004866027
1.1326,-0.006117793
1.1328,-0.007227382
1.133,-0.008723263
1.1332,-0.0110515
1.1334,-0.0137689
1.1336,-0.01681409
1.1338,-0.01889892
1.134,-0.02198172
1.1342,-0.02430559
1.1344,-0.0244936
1.1346,-0.02532032
1.1348,-0.02528206
1.135,-0.0267603
1.1352,-0.02826492
1.1354,-0.02715437
1.1356,-0.02629732
1.1358,-0.02881849
1.136,-0.02899495
1.1362,-0.02841918
1.1364,-0.02799439
1.1366,-0.02847713
1.1368,-0.02897094
1.137,-0.02981704
1.1372,-0.02955077
1.1374,-0.02909297
1.1376,-0.02716696
1.1378,-0.02570612
1.138,-0.02596948
1.1382,-0.02478172
1.1384,-0.02360641
1.1386,-0.02260656
1.1388,-0.02040364
1.139,-0.01849029
1.1392,-0.01650104
1.1394,-0.01424559
1.1396,-0.01309567
1.1398,-0.01304337
1.14,-0.01178277
1.1402,-0.009246899
1.1404,-0.00645509
1.1406,-0.005337575
1.1408,-0.003084072
1.141,-0.001673424
1.1412,-0.0007968729
1.1414,0.0001698359
1.1416,0.002283648
1.1418,0.004206536
1.142,0.005500745
1.1422,0.008425362
1.1424,0.01002301
1.1426,0.01279854
1.1428,0.0133136
1.143,0.0146249
1.1432,0.01591114
1.1434,0.01797058
1.1436,0.01927558
1.1438,0.02076882
1.144,0.02268087
1.1442,0.02326491
1.1444,0.02526523
1.1446,0.02488336
1.1448,0.02503275
1.145,0.02529079
1.1452,0.02469721
1.1454,0.02576851
1.1456,0.02577898
1.1458,0.02511495
1.146,0.02477416
1.1462,0.02567978
1.1464,0.02522119
1.1466,0.0236689
1.1468,0.02368778
1.147,0.02373151
1.1472,0.02315849
1.1474,0.02213079
1.1476,0.02268936
1.1478,0.02272798
1.148,0.02375542
1.1482,0.02514913
1.1484,0.02535276
1.1486,0.0248889
1.1488,0.0230841
1.149,0.02103775
1.1492,0.01957144
1.1494,0.01895786
1.1496,0.01906911
1.1498,0.01867655
1.15,0.01542085
1.1502,0.01292499
1.1504,0.01162179
1.1506,0.009861446
1.1508,0.008857979
1.151,0.00680112
1.1512,0.005840118
1.1514,0.005617259
1.1516,0.004266297
1.1518,0.0006310833
1.152,-0.001654649
1.1522,-0.003337071
1.1524,-0.005623596
1.1526,-0.00687508
1.1528,-0.008359977
1.153,-0.009596855
1.1532,-0.01075431
1.1534,-0.01223542
1.1536,-0.0148864
1.1538,-0.01804968
1.154,-0.02025954
1.1542,-0.02121457
1.1544,-0.02082051
1.1546,-0.02270521
1.1548,-0.02519342
1.155,-0.02738065
1.1552,-0.02795805
1.1554,-0.02824285
1.1556,-0.0283128
1.1558,-0.02861264
1.156,-0.02815381
1.1562,-0.02887332
1.1564,-0.02945916
1.1566,-0.02919107
1.1568,-0.02898031
1.157,-0.02833402
1.1572,-0.02972548
1.1574,-0.02960413
1.1576,-0.0279814
1.1578,-0.02756809
1.158,-0.02797351
1.1582,-0.0286388
1.1584,-0.02866729
1.1586,-0.02712549
1.1588,-0.02466979
1.159,-0.02243839
1.1592,-0.02198876
1.1594,-0.02116622
1.1596,-0.0173848
1.1598,-0.01400047
1.16,-0.01215161
1.1602,-0.009542124
1.1604,-0.006938023
1.1606,-0.007034211
1.1608,-0.007115967
1.161,-0.005897271
1.1612,-0.004085267
1.1614,-0.004242476
1.1616,-0.003027445
1.1618,-0.001251939
1.162,0.000703777
1.1622,0.003177467
1.1624,0.006621042
1.1626,0.009487326
1.1628,0.01036126
1.163,0.01220613
1.1632,0.01313041
1.1634,0.01650624
1.1636,0.01882703
1.1638,0.01977299
1.164,0.01995391
1.1642,0.02001618
1.1644,0.02189952
1.1646,0.024889
1.1648,0.02656265
1.165,0.02654316
1.1652,0.02775043
1.1654,0.02741814
1.1656,0.0261695
1.1658,0.02651219
1.166,0.02649166
1.1662,0.02782886
1.1664,0.02866115
1.1666,0.02832874
1.1668,0.027895
1.167,0.02850664
1.1672,0.02818416
1.1674,0.02743043
1.1676,0.02644048
1.1678,0.02718231
1.168,0.02753556
1.1682,0.02637877
1.1684,0.0238199
1.1686,0.02402617
1.1688,0.02323674
1.169,0.02181058
1.1692,0.02057766
1.1694,0.01838757
1.1696,0.0167695
1.1698,0.01624267
1.17,0.01501181
1.1702,0.01214327
1.1704,0.01000889
1.1706,0.007830277
1.1708,0.006719086
1.171,0.00472859
1.1712,0.002588634
1.1714,0.002348546
1.1716,0.001427252
1.1718,-0.0007966995
1.172,-0.003820814
1.1722,-0.005323654
1.1724,-0.006589808
1.1726,-0.007464173
1.1728,-0.009173099
1.173,-0.009609958
1.1732,-0.009734481
1.1734,-0.01313273
1.1736,-0.01464494
1.1738,-0.01618058
1.174,-0.01984263
1.1742,-0.02338173
1.1744,-0.02636698
1.1746,-0.02806426
1.1748,-0.02953746
1.175,-0.02962033
1.1752,-0.02749422
1.1754,-0.02643965
1.1756,-0.02595798
1.1758,-0.02517259
1.176,-0.02584481
1.1762,-0.02654814
1.1764,-0.02718379
1.1766,-0.02830382
1.1768,-0.02791934
1.177,-0.0273247
1.1772,-0.02830532
1.1774,-0.02861832
1.1776,-0.02755534
1.1778,-0.0262999
1.178,-0.02653715
1.1782,-0.02571883
1.1784,-0.02236673
1.1786,-0.02056835
1.1788,-0.01981803
1.179,-0.01935141
1.1792,-0.01810935
1.1794,-0.01669438
1.1796,-0.0157004
1.1798,-0.01401863
1.18,-0.0135257
1.1802,-0.01266579
1.1804,-0.0118619
1.1806,-0.008828482
1.1808,-0.005302451
1.181,-0.003310291
1.1812,-0.003441377
1.1814,-0.0009263743
1.1816,0.001494387
1.1818,0.00116681
1.182,0.002048282
1.1822,0.003846861
1.1824,0.006484354
1.1826,0.009059967
1.1828,0.01163826
1.183,0.01301332
1.1832,0.01431093
1.1834,0.01658477
1.1836,0.01761814
1.1838,0.01931319
1.184,0.01991907
1.1842,0.0222201
1.1844,0.02522461
1.1846,0.02550228
1.1848,0.02558182
1.185,0.02484211
1.1852,0.02318853
1.1854,0.02435112
1.1856,0.02560662
1.1858,0.02588592
1.186,0.02672913
1.1862,0.02793146
1.1864,0.02765353
1.1866,0.02852698
1.1868,0.02750796
1.187,0.02687661
1.1872,0.02791817
1.1874,0.0281436
1.1876,0.02858116
1.1878,0.02891874
1.188,0.02767581
1.1882,0.02702838
1.1884,0.02643883
1.1886,0.02435976
1.1888,0.02239333
1.189,0.02249743
1.1892,0.02248426
1.1894,0.02212885
1.1896,0.02020372
1.1898,0.01814114
1.19,0.01504974
1.1902,0.01146061
1.1904,0.009526126
1.1906,0.008454801
1.1908,0.007298564
1.191,0.006235829
1.1912,0.004204134
1.1914,0.001314262
1.1916,-0.0005862839
1.1918,-0.001168376
1.192,-0.002107565
1.1922,-0.004890893
1.1924,-0.007315786
1.1926,-0.01139173
1.1928,-0.01385975
1.193,-0.01647162
1.1932,-0.01825042
1.1934,-0.02006456
1.1936,-0.0232107
1.1938,-0.02289473
1.194,-0.02219005
1.1942,-0.02302609
1.1944,-0.02428355
1.1946,-0.02426466
1.1948,-0.02484437
1.195,-0.02615539
1.1952,-0.02737773
1.1954,-0.02770881
1.1956,-0.02877403
1.1958,-0.03010223
1.196,-0.02925066
1.1962,-0.0288545
1.1964,-0.0289271
1.1966,-0.0288932
1.1968,-0.02799783
1.197,-0.02871103
1.1972,-0.02881697
1.1974,-0.02771643
1.1976,-0.02694093
1.1978,-0.02731813
1.198,-0.0275174
1.1982,-0.02814037
1.1984,-0.02874049
1.1986,-0.02675858
1.1988,-0.02395635
1.199,-0.02253905
1.1992,-0.02095784
1.1994,-0.01863646
1.1996,-0.01735808
1.1998,-0.01531669
1.2,-0.01286699
1.2002,-0.0116261
1.2004,-0.01175928
1.2006,-0.009815317
1.2008,-0.006517342
1.201,-0.003645962
1.2012,-0.0001799405
1.2014,0.001588981
1.2016,0.003105216
1.2018,0.004216984
1.202,0.005886968
1.2022,0.008083809
1.2024,0.01066922
1.2026,0.01191724
1.2028,0.01190437
1.203,0.0116113
1.2032,0.0119657
1.2034,0.01383325
1.2036,0.01653507
1.2038,0.0185136
1.204,0.02013534
1.2042,0.02290223
1.2044,0.02480502
1.2046,0.02509543
1.2048,0.02430462
1.205,0.0250647
1.2052,0.026487
1.2054,0.02720854
1.2056,0.02696162
1.2058,0.02726125
1.206,0.0292724
1.2062,0.02978906
1.2064,0.03105009
1.2066,0.03117259
1.2068,0.03125791
1.207,0.0306038
1.2072,0.02872702
1.2074,0.02846029
1.2076,0.029318
1.2078,0.02874093
1.208,0.02824745
1.2082,0.02640059
1.2084,0.02358849
1.2086,0.02175717
1.2088,0.01931113
1.209,0.01982293
1.2092,0.0190106
1.2094,0.0188951
1.2096,0.01881763
1.2098,0.01760634
1.21,0.01491751
1.2102,0.01212814
1.2104,0.01069958
1.2106,0.009793726
1.2108,0.008710218
1.211,0.00704518
1.2112,0.004563368
1.2114,0.002205762
1.2116,0.0007833226
1.2118,-0.0009466556
1.212,-0.003142952
1.2122,-0.006781705
1.2124,-0.01070992
1.2126,-0.01179792
1.2128,-0.01180589
1.213,-0.0141096
1.2132,-0.01558625
1.2134,-0.01740378
1.2136,-0.01933513
1.2138,-0.01928329
1.214,-0.01942166
1.2142,-0.02058184
1.2144,-0.0221448
1.2146,-0.02362024
1.2148,-0.02490089
1.215,-0.02513423
1.2152,-0.02622807
1.2154,-0.02822469
1.2156,-0.02999489
1.2158,-0.0296352
1.216,-0.02874069
1.2162,-0.02825919
1.2164,-0.0283259
1.2166,-0.02958262
1.2168,-0.02927954
1.217,-0.02944181
1.2172,-0.02935542
1.2174,-0.02787928
1.2176,-0.02821474
1.2178,-0.02851954
1.218,-0.02798905
1.2182,-0.02735468
1.2184,-0.02610928
1.2186,-0.02412627
1.2188,-0.02195329
1.219,-0.02086996
1.2192,-0.02137745
1.2194,-0.01981242
1.2196,-0.01681717
1.2198,-0.01416053
1.22,-0.01019524
1.2202,-0.00947545
1.2204,-0.009307226
1.2206,-0.007485912
1.2208,-0.005378958
1.221,-0.00403214
1.2212,-0.003446585
1.2214,-0.0002458537
1.2216,0.002279346
1.2218,0.00400442
1.222,0.005663617
1.2222,0.006528487
1.2224,0.007983728
1.2226,0.009023743
1.2228,0.00919853
1.223,0.01194082
1.2232,0.01494977
1.2234,0.01617744
1.2236,0.01791094
1.2238,0.0196938
1.224,0.02112697
1.2242,0.02366719
1.2244,0.0239709
1.2246,0.02455906
1.2248,0.02604483
1.225,0.02708608
1.2252,0.02756607
1.2254,0.02702194
1.2256,0.02796496
1.2258,0.02955248
1.226,0.0300776
1.2262,0.03055364
1.2264,0.0296
1.2266,0.02884451
1.2268,0.02833127
1.227,0.0281083
1.2272,0.02801886
1.2274,0.02875043
1.2276,0.02978243
1.2278,0.02876638
1.228,0.0273314
1.2282,0.02784848
1.2284,0.02776581
1.2286,0.02630288
1.2288,0.02462246
1.229,0.021885
1.2292,0.01954364
1.2294,0.0186157
1.2296,0.01750379
1.2298,0.01475697
1.23,0.01179862
1.2302,0.008867463
1.2304,0.00725283
1.2306,0.006887128
1.2308,0.004855777
1.231,0.004334905
1.2312,0.003604146
1.2314,0.002734118
1.2316,0.003679361
1.2318,-0.0006681216
1.232,-0.003949832
1.2322,-0.005943779
1.2324,-0.008700309
1.2326,-0.009848768
1.2328,-0.009995785
1.233,-0.01034185
1.2332,-0.01366062
1.2334,-0.01865494
1.2336,-0.02114029
1.2338,-0.02134163
1.234,-0.0223499
1.2342,-0.02359721
1.2344,-0.02398255
1.2346,-0.02382112
1.2348,-0.02396196
1.235,-0.02429328
1.2352,-0.02401205
1.2354,-0.02381955
1.2356,-0.02551738
1.2358,-0.02674947
1.236,-0.02644272
1.2362,-0.02599153
1.2364,-0.02587498
1.2366,-0.02615523
1.2368,-0.0255444
1.237,-0.02461589
1.2372,-0.02519624
1.2374,-0.02449299
1.2376,-0.02460193
1.2378,-0.02465149
1.238,-0.02423689
1.2382,-0.02443113
1.2384,-0.02498862
1.2386,-0.02304705
1.2388,-0.02045585
1.239,-0.01998476
1.2392,-0.01910575
1.2394,-0.01706845
1.2396,-0.01522878
1.2398,-0.01355529
1.24,-0.01337253
1.2402,-0.01281488
1.2404,-0.01156664
1.2406,-0.009676606
1.2408,-0.007646035
1.241,-0.005523361
1.2412,-0.004870445
1.2414,-0.004454728
1.2416,-0.00263287
1.2418,-0.0007785553
1.242,0.001414749
1.2422,0.00237782
1.2424,0.005192088
1.2426,0.008920666
1.2428,0.01067359
1.243,0.01062944
1.2432,0.01035488
1.2434,0.01257908
1.2436,0.01385145
1.2438,0.01568689
1.244,0.01703197
1.2442,0.01860351
1.2444,0.0195356
1.2446,0.0215959
1.2448,0.0232211
1.245,0.02360993
1.2452,0.02508529
1.2454,0.02511161
1.2456,0.02451425
1.2458,0.02632048
1.246,0.02691296
1.2462,0.02668103
1.2464,0.02537628
1.2466,0.02493856
1.2468,0.02717736
1.247,0.02741818
1.2472,0.02657659
1.2474,0.02676374
1.2476,0.02751161
1.2478,0.02723332
1.248,0.02621412
1.2482,0.02489311
1.2484,0.02341141
1.2486,0.02056803
1.2488,0.01861501
1.249,0.01883284
1.2492,0.01937489
1.2494,0.01803225
1.2496,0.01578204
1.2498,0.01226174
1.25,0.0106469
1.2502,0.01036028
1.2504,0.007705047
1.2506,0.006012226
1.2508,0.00405803
1.251,0.001559501
1.2512,0.001169611
1.2514,0.00087026
1.2516,-0.001144715
1.2518,-0.003799349
1.252,-0.004455416
1.2522,-0.004345059
1.2524,-0.006334133
1.2526,-0.009235237
1.2528,-0.01128804
1.253,-0.01414566
1.2532,-0.0164575
1.2534,-0.01733809
1.2536,-0.0176251
1.2538,-0.0191129
1.254,-0.02156912
1.2542,-0.02312779
1.2544,-0.02369801
1.2546,-0.0243788
1.2548,-0.02464565
1.255,-0.02676318
1.2552,-0.0283276
1.2554,-0.02817397
1.2556,-0.02751743
1.2558,-0.02915274
1.256,-0.02897031
1.2562,-0.02975046
1.2564,-0.02917166
1.2566,-0.02876441
1.2568,-0.02811955
1.257,-0.03080454
1.2572,-0.03060263
1.2574,-0.02751425
1.2576,-0.02667124
1.2578,-0.02545434
1.258,-0.02524603
1.2582,-0.02375931
1.2584,-0.02291414
1.2586,-0.02170947
1.2588,-0.02054563
1.259,-0.01855258
1.2592,-0.01758775
1.2594,-0.01663939
1.2596,-0.01654489
1.2598,-0.01700415
1.26,-0.01471938
1.2602,-0.01177964
1.2604,-0.009210956
1.2606,-0.006310174
1.2608,-0.004263509
1.261,-0.003844784
1.2612,-0.002404923
1.2614,-0.001941846
1.2616,0.0006034587
1.2618,0.003080668
1.262,0.005177284
1.2622,0.007173161
1.2624,0.008669361
1.2626,0.009545451
1.2628,0.01055259
1.263,0.0128823
1.2632,0.01561706
1.2634,0.01814224
1.2636,0.02092221
1.2638,0.02363844
1.264,0.02393913
1.2642,0.0246419
1.2644,0.02463963
1.2646,0.02577513
1.2648,0.02722888
1.265,0.02695236
1.2652,0.02727222
1.2654,0.02902552
1.2656,0.02897876
1.2658,0.02874034
1.266,0.02905674
1.2662,0.03096616
1.2664,0.03012218
1.2666,0.02984275
1.2668,0.02907051
1.267,0.02886375
1.2672,0.02943084
1.2674,0.0279035
1.2676,0.02802836
1.2678,0.02827133
1.268,0.02774405
1.2682,0.02709226
1.2684,0.0254067
1.2686,0.025957
1.2688,0.024147
1.269,0.02138333
1.2692,0.01918209
1.2694,0.01888871
1.2696,0.01875236
1.2698,0.01868642
1.27,0.01663892
1.2702,0.01221744
1.2704,0.01044494
1.2706,0.008796568
1.2708,0.007826969
1.271,0.006705135
1.2712,0.003860855
1.2714,0.00241643
1.2716,0.0009899308
1.2718,0.0002717998
1.272,-0.001444928
1.2722,-0.00571632
1.2724,-0.008477309
1.2726,-0.008395857
1.2728,-0.009691526
1.273,-0.01131689
1.2732,-0.01338608
1.2734,-0.01647029
1.2736,-0.01931438
1.2738,-0.02067678
1.274,-0.02146756
1.2742,-0.02375878
1.2744,-0.02459373
1.2746,-0.02522782
1.2748,-0.02517259
1.275,-0.02601956
1.2752,-0.02740785
1.2754,-0.02797744
1.2756,-0.02867422
1.2758,-0.0295552
1.276,-0.02987508
1.2762,-0.02799039
1.2764,-0.02653874
1.2766,-0.0280767
1.2768,-0.02856729
1.277,-0.02925656
1.2772,-0.02895486
1.2774,-0.02936489
1.2776,-0.02822843
1.2778,-0.02815123
1.278,-0.02783882
1.2782,-0.02717377
1.2784,-0.02603775
1.2786,-0.02514286
1.2788,-0.02455583
1.279,-0.02190733
1.2792,-0.02041588
1.2794,-0.0188505
1.2796,-0.01800484
1.2798,-0.01649883
1.28,-0.01575294
1.2802,-0.01366008
1.2804,-0.01200188
1.2806,-0.01078456
1.2808,-0.009425235
1.281,-0.008038904
1.2812,-0.006492686
1.2814,-0.006281415
1.2816,-0.004974143
1.2818,-0.00132041
1.282,0.001101445
1.2822,0.003553735
1.2824,0.007046051
1.2826,0.007928202
1.2828,0.01024392
1.283,0.01354174
1.2832,0.01554221
1.2834,0.01839438
1.2836,0.01806454
1.2838,0.01893452
1.284,0.02062872
1.2842,0.02158826
1.2844,0.02283424
1.2846,0.02468443
1.2848,0.02470247
1.285,0.02473953
1.2852,0.02569047
1.2854,0.02607207
1.2856,0.02698288
1.2858,0.02717873
1.286,0.02784864
1.2862,0.02644625
1.2864,0.02680101
1.2866,0.0277024
1.2868,0.02872307
1.287,0.02826643
1.2872,0.02753504
1.2874,0.02707988
1.2876,0.02602289
1.2878,0.02698945
1.288,0.02795249
1.2882,0.02882718
1.2884,0.0283649
1.2886,0.02831681
1.2888,0.02601095
1.289,0.02299402
1.2892,0.02045957
1.2894,0.01774624
1.2896,0.01547865
1.2898,0.01413809
1.29,0.01445686
1.2902,0.01269325
1.2904,0.009116421
1.2906,0.006816
1.2908,0.004573355
1.291,0.003506339
1.2912,0.001919217
1.2914,0.0003735734
1.2916,-0.0002795384
1.2918,-0.002220666
1.292,-0.00460436
1.2922,-0.006458249
1.2924,-0.007908163
1.2926,-0.01018599
1.2928,-0.01213952
1.293,-0.01392491
1.2932,-0.01654919
1.2934,-0.017984
1.2936,-0.01934389
1.2938,-0.0206812
1.294,-0.02085701
1.2942,-0.02215178
1.2944,-0.02297445
1.2946,-0.02422043
1.2948,-0.02624765
1.295,-0.02746123
1.2952,-0.02858327
1.2954,-0.02821033
1.2956,-0.02812075
1.2958,-0.0281673
1.296,-0.02845125
1.2962,-0.02865555
1.2964,-0.0289887
1.2966,-0.02778935
1.2968,-0.02936786
1.297,-0.02964463
1.2972,-0.02876801
1.2974,-0.02872225
1.2976,-0.02645829
1.2978,-0.02471076
1.298,-0.02392617
1.2982,-0.02300829
1.2984,-0.0228913
1.2986,-0.02157252
1.2988,-0.02134216
1.299,-0.02127927
1.2992,-0.0192677
1.2994,-0.01634956
1.2996,-0.01439476
1.2998,-0.01257362
1.3,-0.01121046
1.3002,-0.00930074
1.3004,-0.006315093
1.3006,-0.005861263
1.3008,-0.00395456
1.301,-0.002097243
1.3012,-0.0007217539
1.3014,0.001398006
1.3016,0.004757419
1.3018,0.0082111
1.302,0.009262944
1.3022,0.008747049
1.3024,0.009218649
1.3026,0.01092286
1.3028,0.01235954
1.303,0.0139539
1.3032,0.01611903
1.3034,0.01777233
1.3036,0.01970827
