time_s,voltage_v
0.0,-0.02352136
0.0002,-0.02382402
0.0004,-0.02247043
0.0006,-0.0215989
0.0008,-0.0200151
0.001,-0.018292
0.0012,-0.01699772
0.0014,-0.01646941
0.0016,-0.0159427
0.0018,-0.0146985
0.002,-0.01476972
0.0022,-0.01433628
0.0024,-0.01262868
0.0026,-0.01107507
0.0028,-0.009384559
0.003,-0.007079723
0.0032,-0.006235978
0.0034,-0.004309402
0.0036,-0.0004699129
0.0038,0.001092616
0.004,0.001934206
0.0042,0.002813098
0.0044,0.006798763
0.0046,0.008200396
0.0048,0.01016005
0.005,0.0128654
0.0052,0.01278418
0.0054,0.01334928
0.0056,0.01359967
0.0058,0.01557435
0.006,0.01612687
0.0062,0.01657364
0.0064,0.01768856
0.0066,0.01969507
0.0068,0.02028287
0.007,0.02050177
0.0072,0.02204889
0.0074,0.02392172
0.0076,0.02610162
0.0078,0.02710352
0.008,0.02552877
0.0082,0.02543678
0.0084,0.02649127
0.0086,0.02731453
0.0088,0.02658573
0.009,0.02485237
0.0092,0.02417057
0.0094,0.0238951
0.0096,0.02411398
0.0098,0.02298227
0.01,0.02354559
0.0102,0.02171516
0.0104,0.02109626
0.0106,0.02156889
0.0108,0.021615
0.011,0.02101451
0.0112,0.01913429
0.0114,0.01977021
0.0116,0.01765833
0.0118,0.01618248
0.012,0.01592781
0.0122,0.01456857
0.0124,0.01323598
0.0126,0.01189469
0.0128,0.009149595
0.013,0.007472507
0.0132,0.006119127
0.0134,0.004256669
0.0136,0.001136753
0.0138,-0.0007841064
0.014,-0.0005797108
0.0142,-0.001582962
0.0144,-0.004404776
0.0146,-0.005951604
0.0148,-0.008015316
0.015,-0.009635822
0.0152,-0.01191786
0.0154,-0.01359322
0.0156,-0.01468759
0.0158,-0.01578661
0.016,-0.01747232
0.0162,-0.01745334
0.0164,-0.0174233
0.0166,-0.01976019
0.0168,-0.02108861
0.017,-0.02132178
0.0172,-0.01969736
0.0174,-0.02077361
0.0176,-0.02235332
0.0178,-0.02394265
0.018,-0.02502203
0.0182,-0.02519257
0.0184,-0.02644955
0.0186,-0.02880942
0.0188,-0.02666825
0.019,-0.02355212
0.0192,-0.02348374
0.0194,-0.0229742
0.0196,-0.02240665
0.0198,-0.02197465
0.02,-0.02124359
0.0202,-0.02061239
0.0204,-0.02010299
0.0206,-0.02000997
0.0208,-0.01746368
0.021,-0.01760488
0.0212,-0.01672122
0.0214,-0.01708319
0.0216,-0.0175778
0.0218,-0.0164459
0.022,-0.01514839
0.0222,-0.01231168
0.0224,-0.01092632
0.0226,-0.009488177
0.0228,-0.009273143
0.023,-0.006006534
0.0232,-0.004294298
0.0234,-0.003631883
0.0236,-0.000518406
0.0238,-0.0004107156
0.024,0.001138078
0.0242,0.003343915
0.0244,0.004243488
0.0246,0.005976956
0.0248,0.008024923
0.025,0.01048849
0.0252,0.01185682
0.0254,0.01226464
0.0256,0.01413341
0.0258,0.01535797
0.026,0.0160199
0.0262,0.01678997
0.0264,0.01772844
0.0266,0.01892361
0.0268,0.01940753
0.027,0.0197003
0.0272,0.0219494
0.0274,0.02376948
0.0276,0.02423583
0.0278,0.02476553
0.028,0.02560633
0.0282,0.02645214
0.0284,0.02741292
0.0286,0.02778046
0.0288,0.02731383
0.029,0.02775229
0.0292,0.02904551
0.0294,0.02846387
0.0296,0.02686697
0.0298,0.02550828
0.03,0.02425095
0.0302,0.02429585
0.0304,0.02230735
0.0306,0.02073298
0.0308,0.01887878
0.031,0.01633863
0.0312,0.0155547
0.0314,0.01526773
0.0316,0.0140495
0.0318,0.01316043
0.032,0.01318154
0.0322,0.01299293
0.0324,0.01237692
0.0326,0.01094478
0.0328,0.008845739
0.033,0.007075999
0.0332,0.004734384
0.0334,0.003388565
0.0336,0.002537449
0.0338,0.001203077
0.034,0.0003044858
0.0342,-0.002237369
0.0344,-0.004429285
0.0346,-0.005379974
0.0348,-0.007147746
0.035,-0.008782089
0.0352,-0.01149695
0.0354,-0.01308748
0.0356,-0.014564
0.0358,-0.01634956
0.036,-0.01656412
0.0362,-0.01791086
0.0364,-0.01833714
0.0366,-0.02070167
0.0368,-0.02240031
0.037,-0.02128076
0.0372,-0.02153317
0.0374,-0.022733
0.0376,-0.02495354
0.0378,-0.02607649
0.038,-0.02754992
0.0382,-0.02692278
0.0384,-0.02615316
0.0386,-0.02557758
0.0388,-0.02380399
0.039,-0.02471196
0.0392,-0.02601366
0.0394,-0.02481359
0.0396,-0.0236232
0.0398,-0.02247221
0.04,-0.02199985
0.0402,-0.02169698
0.0404,-0.01949975
0.0406,-0.01885266
0.0408,-0.01859827
0.041,-0.01752979
0.0412,-0.01711297
0.0414,-0.0151114
0.0416,-0.01267347
0.0418,-0.01259045
0.042,-0.01219999
0.0422,-0.01137268
0.0424,-0.01101399
0.0426,-0.008434555
0.0428,-0.007420452
0.043,-0.006185029
0.0432,-0.004207189
0.0434,-0.003650004
0.0436,-0.002063505
0.0438,0.0005487184
0.044,0.002822936
0.0442,0.003668322
0.0444,0.004442646
0.0446,0.006810357
0.0448,0.007605508
0.045,0.009953943
0.0452,0.01107891
0.0454,0.01227321
0.0456,0.01460998
0.0458,0.01658876
0.046,0.0171577
0.0462,0.01691762
0.0464,0.01706854
0.0466,0.01738349
0.0468,0.01593835
0.047,0.01654433
0.0472,0.01823091
0.0474,0.01990372
0.0476,0.02132634
0.0478,0.02121458
0.048,0.02136133
0.0482,0.02347943
0.0484,0.02411469
0.0486,0.02641703
0.0488,0.02544803
0.049,0.02397843
0.0492,0.02364032
0.0494,0.02234378
0.0496,0.02195892
0.0498,0.02265709
0.05,0.02366578
0.0502,0.0240128
0.0504,0.02229368
0.0506,0.01927027
0.0508,0.01715974
0.051,0.01743455
0.0512,0.0163394
0.0514,0.01569429
0.0516,0.01568054
0.0518,0.01499628
0.052,0.01372275
0.0522,0.01260192
0.0524,0.01187404
0.0526,0.009446747
0.0528,0.006360807
0.053,0.003694375
0.0532,0.003132279
0.0534,0.00121149
0.0536,0.0003449404
0.0538,-0.0005010219
0.054,-0.002475377
0.0542,-0.004111103
0.0544,-0.006646625
0.0546,-0.008252936
0.0548,-0.008374053
0.055,-0.01082171
0.0552,-0.01401792
0.0554,-0.0147477
0.0556,-0.01584774
0.0558,-0.01805228
0.056,-0.01783843
0.0562,-0.01821733
0.0564,-0.01899738
0.0566,-0.0185481
0.0568,-0.01944396
0.057,-0.01885359
0.0572,-0.0196048
0.0574,-0.02057794
0.0576,-0.02081775
0.0578,-0.02197289
0.058,-0.02177468
0.0582,-0.02058959
0.0584,-0.0211764
0.0586,-0.02290082
0.0588,-0.02426719
0.059,-0.02567499
0.0592,-0.02622604
0.0594,-0.02738567
0.0596,-0.02771945
0.0598,-0.02756226
0.06,-0.02787284
0.0602,-0.02630129
0.0604,-0.0251473
0.0606,-0.02421515
0.0608,-0.02234361
0.061,-0.02154229
0.0612,-0.01955923
0.0614,-0.01749596
0.0616,-0.01759836
0.0618,-0.01761517
0.062,-0.0171035
0.0622,-0.01513271
0.0624,-0.01352653
0.0626,-0.01090643
0.0628,-0.008476148
0.063,-0.004538992
0.0632,-0.002847028
0.0634,-0.00243764
0.0636,-0.001142756
0.0638,0.0004373936
0.064,0.004876984
0.0642,0.006571882
0.0644,0.007252838
0.0646,0.01001897
0.0648,0.01116252
0.065,0.01107967
0.0652,0.01104954
0.0654,0.01213667
0.0656,0.01499312
0.0658,0.01651254
0.066,0.01726311
0.0662,0.01947465
0.0664,0.02049659
0.0666,0.02021278
0.0668,0.02152951
0.067,0.02247603
0.0672,0.02328044
0.0674,0.02309806
0.0676,0.02314937
0.0678,0.0235702
0.068,0.02346325
0.0682,0.02471458
0.0684,0.02553833
0.0686,0.02646713
0.0688,0.02610263
0.069,0.02592871
0.0692,0.02703049
0.0694,0.02669101
0.0696,0.02448884
0.0698,0.02306542
0.07,0.02208404
0.0702,0.02055589
0.0704,0.01929829
0.0706,0.01817496
0.0708,0.01753504
0.071,0.01691744
0.0712,0.01526074
0.0714,0.01268228
0.0716,0.01057052
0.0718,0.009537145
0.072,0.008910551
0.0722,0.007698019
0.0724,0.00519209
0.0726,0.003169298
0.0728,0.002356095
0.073,0.001767255
0.0732,0.001507814
0.0734,0.001168087
0.0736,0.0001837157
0.0738,-0.001756059
0.074,-0.003570066
0.0742,-0.004703546
0.0744,-0.005143138
0.0746,-0.008041294
0.0748,-0.00952074
0.075,-0.01094162
0.0752,-0.01096768
0.0754,-0.01162455
0.0756,-0.01405323
0.0758,-0.01678029
0.076,-0.02137228
0.0762,-0.02663927
0.0764,-0.03123518
0.0766,-0.03277378
0.0768,-0.03244684
0.077,-0.03285784
0.0772,-0.03206462
0.0774,-0.03012094
0.0776,-0.02762084
0.0778,-0.02450467
0.078,-0.02104557
0.0782,-0.01789735
0.0784,-0.01539409
0.0786,-0.01328621
0.0788,-0.01061274
0.079,-0.008586291
0.0792,-0.008624089
0.0794,-0.009200275
0.0796,-0.01019824
0.0798,-0.01012944
0.08,-0.009513065
0.0802,-0.00992922
0.0804,-0.009477543
0.0806,-0.007828061
0.0808,-0.006993965
0.081,-0.006220435
0.0812,-0.005407178
0.0814,-0.0043677
0.0816,-0.00369622
0.0818,-0.003596793
0.082,-0.003104554
0.0822,-0.001438052
0.0824,0.0008530344
0.0826,0.003510081
0.0828,0.005912813
0.083,0.007455359
0.0832,0.008294549
0.0834,0.009558666
0.0836,0.01284222
0.0838,0.01479322
0.084,0.01508289
0.0842,0.0145179
0.0844,0.01310421
0.0846,0.0118011
0.0848,0.01044633
0.085,0.009249422
0.0852,0.008087036
0.0854,0.006544873
0.0856,0.005239115
0.0858,0.003570229
0.086,0.003166834
0.0862,0.004174962
0.0864,0.003707283
0.0866,0.004301804
0.0868,0.005513268
0.087,0.004547982
0.0872,0.005780817
0.0874,0.007347878
0.0876,0.007755611
0.0878,0.008506695
0.088,0.009273259
0.0882,0.008780461
0.0884,0.008521742
0.0886,0.008961858
0.0888,0.01014663
0.089,0.01284156
0.0892,0.01240685
0.0894,0.0112797
0.0896,0.00963013
0.0898,0.01196172
0.09,0.01456944
0.0902,0.01726845
0.0904,0.01950119
0.0906,0.02122125
0.0908,0.02313778
0.091,0.02252426
0.0912,0.02115056
0.0914,0.01989487
0.0916,0.01841254
0.0918,0.01858879
0.092,0.01811505
0.0922,0.01661487
0.0924,0.01428912
0.0926,0.0110783
0.0928,0.01017475
0.093,0.009610207
0.0932,0.008928041
0.0934,0.00785117
0.0936,0.008563127
0.0938,0.00895085
0.094,0.006334518
0.0942,0.005663044
0.0944,0.007002496
0.0946,0.005948036
0.0948,0.004354901
0.095,0.001282717
0.0952,-0.001326816
0.0954,-0.002975074
0.0956,-0.004200689
0.0958,-0.006770023
0.096,-0.008421256
0.0962,-0.01181301
0.0964,-0.01507689
0.0966,-0.01583453
0.0968,-0.01833123
0.097,-0.02032356
0.0972,-0.0227668
0.0974,-0.02380238
0.0976,-0.02345934
0.0978,-0.0244734
0.098,-0.02361356
0.0982,-0.02278022
0.0984,-0.02401901
0.0986,-0.0238873
0.0988,-0.02378023
0.099,-0.02385884
0.0992,-0.02439308
0.0994,-0.02469705
0.0996,-0.0249214
0.0998,-0.02340138
0.1,-0.02417175
0.1002,-0.02468055
0.1004,-0.02441195
0.1006,-0.02203989
0.1008,-0.01973844
0.101,-0.01908141
0.1012,-0.01835738
0.1014,-0.01697434
0.1016,-0.01557841
0.1018,-0.01681099
0.102,-0.0171963
0.1022,-0.01354321
0.1024,-0.0110046
0.1026,-0.01085401
0.1028,-0.01091885
0.103,-0.00896246
0.1032,-0.005178199
0.1034,-0.004539499
0.1036,-0.002476749
0.1038,0.001778326
0.104,0.002388861
0.1042,0.002835411
0.1044,0.004009389
0.1046,0.004911518
0.1048,0.005518869
0.105,0.007513026
0.1052,0.01035368
0.1054,0.01138343
0.1056,0.01129572
0.1058,0.01168041
0.106,0.01340453
0.1062,0.01333611
0.1064,0.01390364
0.1066,0.01491574
0.1068,0.01645069
0.107,0.01927673
0.1072,0.01951022
0.1074,0.01928385
0.1076,0.01959769
0.1078,0.02078124
0.108,0.02273202
0.1082,0.02361001
0.1084,0.0230951
0.1086,0.02473315
0.1088,0.02626563
0.109,0.02661157
0.1092,0.02548414
0.1094,0.02492072
0.1096,0.02568902
0.1098,0.0264301
0.11,0.02647434
0.1102,0.02654017
0.1104,0.02650104
0.1106,0.02560259
0.1108,0.02270891
0.111,0.0214254
0.1112,0.01848532
0.1114,0.01462268
0.1116,0.01420259
0.1118,0.01320096
0.112,0.01141346
0.1122,0.008961716
0.1124,0.007127115
0.1126,0.005959638
0.1128,0.00435124
0.113,0.002894495
0.1132,0.001434545
0.1134,0.001329358
0.1136,7.30965e-05
0.1138,-0.002458915
0.114,-0.003297707
0.1142,-0.005605262
0.1144,-0.00834981
0.1146,-0.01117369
0.1148,-0.01242574
0.115,-0.01196443
0.1152,-0.01475275
0.1154,-0.01612428
0.1156,-0.01790386
0.1158,-0.0189311
0.116,-0.01984111
0.1162,-0.02062766
0.1164,-0.02058186
0.1166,-0.02249054
0.1168,-0.02434277
0.117,-0.02526148
0.1172,-0.0256645
0.1174,-0.02442252
0.1176,-0.02461049
0.1178,-0.02546003
0.118,-0.02614879
0.1182,-0.02649456
0.1184,-0.02655572
0.1186,-0.0284552
0.1188,-0.02811508
0.119,-0.02605302
0.1192,-0.02529486
0.1194,-0.02559503
0.1196,-0.02533538
0.1198,-0.02513508
0.12,-0.02353379
0.1202,-0.02161784
0.1204,-0.01877725
0.1206,-0.01650776
0.1208,-0.01501641
0.121,-0.01456725
0.1212,-0.01321282
0.1214,-0.01362791
0.1216,-0.0134867
0.1218,-0.01267161
0.122,-0.01132823
0.1222,-0.008916518
0.1224,-0.006467556
0.1226,-0.005928617
0.1228,-0.004593835
0.123,-0.002473084
0.1232,-0.001894734
0.1234,0.002248765
0.1236,0.00272961
0.1238,0.004456613
0.124,0.006806335
0.1242,0.009558447
0.1244,0.01025075
0.1246,0.01020355
0.1248,0.01173828
0.125,0.01357948
0.1252,0.0146051
0.1254,0.01474124
0.1256,0.01446589
0.1258,0.01515587
0.126,0.01627068
0.1262,0.01784084
0.1264,0.01915449
0.1266,0.0204184
0.1268,0.02314307
0.127,0.02406948
0.1272,0.02462867
0.1274,0.02511575
0.1276,0.02578336
0.1278,0.02725994
0.128,0.02729729
0.1282,0.02711914
0.1284,0.02715718
0.1286,0.02750632
0.1288,0.02711095
0.129,0.02446927
0.1292,0.02272931
0.1294,0.02265593
0.1296,0.02378955
0.1298,0.02344643
0.13,0.02259745
0.1302,0.02145445
0.1304,0.0207457
0.1306,0.01880892
0.1308,0.01749798
0.131,0.01587222
0.1312,0.01421149
0.1314,0.0122528
0.1316,0.009488787
0.1318,0.009671831
0.132,0.008820421
0.1322,0.007588629
0.1324,0.004438741
0.1326,0.0003033955
0.1328,-0.001829536
0.133,-0.002653217
0.1332,-0.001479227
0.1334,-0.002192016
0.1336,-0.004361877
0.1338,-0.006156468
0.134,-0.007258027
0.1342,-0.008131254
0.1344,-0.01012974
0.1346,-0.0116534
0.1348,-0.01365352
0.135,-0.01601625
0.1352,-0.01602689
0.1354,-0.01714172
0.1356,-0.01754102
0.1358,-0.01725657
0.136,-0.01859767
0.1362,-0.01985057
0.1364,-0.01993393
0.1366,-0.018587
0.1368,-0.01806613
0.137,-0.02017093
0.1372,-0.02290031
0.1374,-0.02238688
0.1376,-0.02287296
0.1378,-0.02294615
0.138,-0.02165381
0.1382,-0.02314341
0.1384,-0.02373153
0.1386,-0.02432201
0.1388,-0.02514735
0.139,-0.024606
0.1392,-0.02468645
0.1394,-0.02438692
0.1396,-0.0254682
0.1398,-0.02550397
0.14,-0.02488287
0.1402,-0.02481946
0.1404,-0.02436057
0.1406,-0.02186549
0.1408,-0.02042983
0.141,-0.01930909
0.1412,-0.01776887
0.1414,-0.01551707
0.1416,-0.01419297
0.1418,-0.0137012
0.142,-0.01254386
0.1422,-0.01102724
0.1424,-0.008635373
0.1426,-0.006755741
0.1428,-0.004620263
0.143,-0.002937188
0.1432,-0.001969419
0.1434,-0.002128948
0.1436,-0.000843956
0.1438,0.002363092
0.144,0.005695187
0.1442,0.006062572
0.1444,0.005928421
0.1446,0.007955882
0.1448,0.009221087
0.145,0.01100026
0.1452,0.01416725
0.1454,0.01631157
0.1456,0.01843135
0.1458,0.02060401
0.146,0.02317908
0.1462,0.02392096
0.1464,0.02563859
0.1466,0.02724731
0.1468,0.02891038
0.147,0.02904196
0.1472,0.02826046
0.1474,0.02713211
0.1476,0.02632325
0.1478,0.02748195
0.148,0.02639327
0.1482,0.02668646
0.1484,0.02764381
0.1486,0.02735632
0.1488,0.02596206
0.149,0.02563265
0.1492,0.02559036
0.1494,0.0258869
0.1496,0.02579439
0.1498,0.02499335
0.15,0.02435259
0.1502,0.02279102
0.1504,0.02133556
0.1506,0.01935505
0.1508,0.01829453
0.151,0.01835518
0.1512,0.01908637
0.1514,0.01756666
0.1516,0.0157101
0.1518,0.01566717
0.152,0.0142501
0.1522,0.01280526
0.1524,0.0118564
0.1526,0.009420285
0.1528,0.007197684
0.153,0.006140245
0.1532,0.004797331
0.1534,0.003567881
0.1536,0.002656087
0.1538,0.0002003578
0.154,-0.004544126
0.1542,-0.007794053
0.1544,-0.01145106
0.1546,-0.01338286
0.1548,-0.0136431
0.155,-0.01581129
0.1552,-0.01785795
0.1554,-0.01841301
0.1556,-0.02026921
0.1558,-0.02248719
0.156,-0.02417527
0.1562,-0.02563443
0.1564,-0.02402131
0.1566,-0.02367909
0.1568,-0.02363959
0.157,-0.02401072
0.1572,-0.02455326
0.1574,-0.0231593
0.1576,-0.0231457
0.1578,-0.02495942
0.158,-0.02569019
0.1582,-0.02607813
0.1584,-0.02554856
0.1586,-0.02524914
0.1588,-0.02537889
0.159,-0.02478478
0.1592,-0.02489251
0.1594,-0.02464656
0.1596,-0.02459038
0.1598,-0.02430967
0.16,-0.02399896
0.1602,-0.02193095
0.1604,-0.02208468
0.1606,-0.02109979
0.1608,-0.01972152
0.161,-0.01800863
0.1612,-0.01679785
0.1614,-0.01611385
0.1616,-0.01504368
0.1618,-0.01531413
0.162,-0.01340849
0.1622,-0.01255328
0.1624,-0.01084918
0.1626,-0.007710779
0.1628,-0.007391656
0.163,-0.006082114
0.1632,-0.004570262
0.1634,-0.003711156
0.1636,-0.002057074
0.1638,0.001103552
0.164,0.002137177
0.1642,0.004507636
0.1644,0.005765938
0.1646,0.006549084
0.1648,0.006473715
0.165,0.008618027
0.1652,0.01063983
0.1654,0.01207195
0.1656,0.01320428
0.1658,0.01560943
0.166,0.01731277
0.1662,0.01837306
0.1664,0.01923181
0.1666,0.02125884
0.1668,0.02489521
0.167,0.02307585
0.1672,0.02209523
0.1674,0.02377437
0.1676,0.02392695
0.1678,0.02462419
0.168,0.02463019
0.1682,0.02473852
0.1684,0.02498929
0.1686,0.02668127
0.1688,0.02787643
0.169,0.02795937
0.1692,0.0278119
0.1694,0.02752239
0.1696,0.02868205
0.1698,0.028684
0.17,0.02954892
0.1702,0.02975332
0.1704,0.02876259
0.1706,0.02853619
0.1708,0.02811868
0.171,0.02676925
0.1712,0.02522739
0.1714,0.02354861
0.1716,0.02076728
0.1718,0.01883662
0.172,0.01756766
0.1722,0.01463941
0.1724,0.01280343
0.1726,0.01009688
0.1728,0.005443763
0.173,0.002137908
0.1732,-0.0005720412
0.1734,-0.004933727
0.1736,-0.00797011
0.1738,-0.009362008
0.174,-0.01082256
0.1742,-0.01254814
0.1744,-0.01319924
0.1746,-0.01414503
0.1748,-0.01100641
0.175,-0.009994796
0.1752,-0.01074378
0.1754,-0.01331129
0.1756,-0.01398356
0.1758,-0.01322609
0.176,-0.01453655
0.1762,-0.01581238
0.1764,-0.01877484
0.1766,-0.02120999
0.1768,-0.02424325
0.177,-0.02536824
0.1772,-0.02585189
0.1774,-0.02595482
0.1776,-0.02667413
0.1778,-0.02787883
0.178,-0.02845852
0.1782,-0.02848177
0.1784,-0.02899983
0.1786,-0.02921918
0.1788,-0.02944073
0.179,-0.02864446
0.1792,-0.02849079
0.1794,-0.02778061
0.1796,-0.02687715
0.1798,-0.02649846
0.18,-0.02451706
0.1802,-0.02358917
0.1804,-0.02262595
0.1806,-0.02097925
0.1808,-0.01986224
0.181,-0.017035
0.1812,-0.01490582
0.1814,-0.01266766
0.1816,-0.01164328
0.1818,-0.008479054
0.182,-0.004168006
0.1822,0.0005604838
0.1824,0.004128513
0.1826,0.005970225
0.1828,0.006602838
0.183,0.007570064
0.1832,0.007392113
0.1834,0.006950493
0.1836,0.005451936
0.1838,0.004100279
0.184,0.005260751
0.1842,0.006181557
0.1844,0.008186523
0.1846,0.01004265
0.1848,0.009883051
0.185,0.01037199
0.1852,0.01206471
0.1854,0.01394743
0.1856,0.01377759
0.1858,0.01351211
0.186,0.01424452
0.1862,0.0155953
0.1864,0.01534303
0.1866,0.01624404
0.1868,0.01751479
0.187,0.01845663
0.1872,0.018892
0.1874,0.01931889
0.1876,0.01959974
0.1878,0.02108617
0.188,0.02171398
0.1882,0.0220627
0.1884,0.02350562
0.1886,0.02457781
0.1888,0.02423263
0.189,0.02409048
0.1892,0.02373318
0.1894,0.02320642
0.1896,0.02347156
0.1898,0.02247021
0.19,0.02066324
0.1902,0.02098204
0.1904,0.01796284
0.1906,0.01578556
0.1908,0.01545858
0.191,0.01539758
0.1912,0.01367412
0.1914,0.01268647
0.1916,0.01248277
0.1918,0.01329832
0.192,0.01437514
0.1922,0.01462408
0.1924,0.01465418
0.1926,0.01344931
0.1928,0.01296921
0.193,0.01198665
0.1932,0.008887215
0.1934,0.004807118
0.1936,0.0007855457
0.1938,-0.001388212
0.194,-0.00341287
0.1942,-0.006518068
0.1944,-0.009389248
0.1946,-0.01245725
0.1948,-0.0159855
0.195,-0.01730742
0.1952,-0.01870567
0.1954,-0.01865668
0.1956,-0.02135816
0.1958,-0.02450991
0.196,-0.02824642
0.1962,-0.03441361
0.1964,-0.03787116
0.1966,-0.04025389
0.1968,-0.04356117
0.197,-0.04337753
0.1972,-0.04299287
0.1974,-0.04275967
0.1976,-0.04261228
0.1978,-0.04030379
0.198,-0.03738882
0.1982,-0.03506908
0.1984,-0.03267718
0.1986,-0.02858405
0.1988,-0.02450265
0.199,-0.02079253
0.1992,-0.01794899
0.1994,-0.0160138
0.1996,-0.01633129
0.1998,-0.01736304
0.2,-0.01677623
0.2002,-0.01682973
0.2004,-0.01554555
0.2006,-0.01355913
0.2008,-0.01074024
0.201,-0.007617667
0.2012,-0.005550214
0.2014,-0.004469013
0.2016,-0.002778933
0.2018,-0.002596471
0.202,-0.004135557
0.2022,-0.001475057
0.2024,0.001356057
0.2026,0.002143453
0.2028,0.005264662
0.203,0.009908646
0.2032,0.01272601
0.2034,0.01406778
0.2036,0.01528078
0.2038,0.01564229
0.204,0.01577343
0.2042,0.01620476
0.2044,0.01763815
0.2046,0.01682738
0.2048,0.01589617
0.205,0.01699776
0.2052,0.01678117
0.2054,0.01557681
0.2056,0.0149015
0.2058,0.01575512
0.206,0.01542602
0.2062,0.01626066
0.2064,0.01857878
0.2066,0.0209532
0.2068,0.02257338
0.207,0.02513637
0.2072,0.02752305
0.2074,0.03100158
0.2076,0.03275096
0.2078,0.0344413
0.208,0.03773889
0.2082,0.03929756
0.2084,0.04348086
0.2086,0.04501804
0.2088,0.04664689
0.209,0.04702102
0.2092,0.04636605
0.2094,0.04387336
0.2096,0.03945584
0.2098,0.03634521
0.21,0.03297848
0.2102,0.02788997
0.2104,0.02310126
0.2106,0.01838749
0.2108,0.01420446
0.211,0.01194134
0.2112,0.009778658
0.2114,0.007400722
0.2116,0.005774636
0.2118,0.003716252
0.212,0.003505393
0.2122,0.002502953
0.2124,0.0003858027
0.2126,-0.0001258528
0.2128,-0.001558633
0.213,-0.003429448
0.2132,-0.005943795
0.2134,-0.008498387
0.2136,-0.01022541
0.2138,-0.01015466
0.214,-0.01027015
0.2142,-0.01266773
0.2144,-0.01503105
0.2146,-0.01413949
0.2148,-0.01444662
0.215,-0.01599265
0.2152,-0.01723953
0.2154,-0.01875235
0.2156,-0.01943002
0.2158,-0.02014296
0.216,-0.02049243
0.2162,-0.02128615
0.2164,-0.02180985
0.2166,-0.02312773
0.2168,-0.02410752
0.217,-0.02373848
0.2172,-0.02441572
0.2174,-0.02564315
0.2176,-0.02612807
0.2178,-0.02821356
0.218,-0.02710503
0.2182,-0.0262664
0.2184,-0.02639852
0.2186,-0.02577768
0.2188,-0.0252548
0.219,-0.02490109
0.2192,-0.02529436
0.2194,-0.02450979
0.2196,-0.02530718
0.2198,-0.02347935
0.22,-0.02363612
0.2202,-0.02352254
0.2204,-0.02294913
0.2206,-0.02196374
0.2208,-0.02168029
0.221,-0.02232572
0.2212,-0.02028554
0.2214,-0.01869029
0.2216,-0.01862196
0.2218,-0.0173401
0.222,-0.01610919
0.2222,-0.01508769
0.2224,-0.01330362
0.2226,-0.01269764
0.2228,-0.01038098
0.223,-0.00765664
0.2232,-0.00520799
0.2234,-0.003489602
0.2236,-0.001140038
0.2238,0.001895945
0.224,0.003151352
0.2242,0.003983152
0.2244,0.006752601
0.2246,0.007530908
0.2248,0.009877346
0.225,0.01143141
0.2252,0.01252858
0.2254,0.01486359
0.2256,0.01569289
0.2258,0.01610962
0.226,0.01647449
0.2262,0.01758593
0.2264,0.01797177
0.2266,0.01632418
0.2268,0.01599205
0.227,0.01733642
0.2272,0.01725525
0.2274,0.01742411
0.2276,0.01660799
0.2278,0.01758063
0.228,0.01988918
0.2282,0.02032964
0.2284,0.0216336
0.2286,0.02050671
0.2288,0.01864429
0.229,0.01944077
0.2292,0.01825619
0.2294,0.01847313
0.2296,0.01856643
0.2298,0.01742099
0.23,0.01675313
0.2302,0.01665625
0.2304,0.0161785
0.2306,0.01547302
0.2308,0.01557946
0.231,0.01599189
0.2312,0.01501484
0.2314,0.01458987
0.2316,0.01349418
0.2318,0.01256835
0.232,0.01131092
0.2322,0.009435333
0.2324,0.00726215
0.2326,0.007268408
0.2328,0.005648485
0.233,0.005241551
0.2332,0.005482958
0.2334,0.004808006
0.2336,0.00282297
0.2338,-0.0002337982
0.234,-0.003562452
0.2342,-0.005991905
0.2344,-0.004991877
0.2346,-0.00619218
0.2348,-0.008309091
0.235,-0.01054399
0.2352,-0.01208366
0.2354,-0.01302759
0.2356,-0.01337155
0.2358,-0.01281888
0.236,-0.01284018
0.2362,-0.01125147
0.2364,-0.01196902
0.2366,-0.01409415
0.2368,-0.01550412
0.237,-0.01702235
0.2372,-0.01744538
0.2374,-0.01746562
0.2376,-0.01786174
0.2378,-0.01782301
0.238,-0.01756251
0.2382,-0.01851963
0.2384,-0.01894894
0.2386,-0.01795688
0.2388,-0.01874252
0.239,-0.01899985
0.2392,-0.01942004
0.2394,-0.02040232
0.2396,-0.02030247
0.2398,-0.02040139
0.24,-0.02110888
0.2402,-0.02187842
0.2404,-0.02195149
0.2406,-0.02069657
0.2408,-0.01957896
0.241,-0.01869531
0.2412,-0.0184582
0.2414,-0.01919743
0.2416,-0.01744858
0.2418,-0.01451769
0.242,-0.01228735
0.2422,-0.009997341
0.2424,-0.007364201
0.2426,-0.006666156
0.2428,-0.004315593
0.243,-0.001827208
0.2432,-0.001918604
0.2434,-0.0009155038
0.2436,-0.0002060273
0.2438,0.002052734
0.244,0.003893306
0.2442,0.006116108
0.2444,0.007369038
0.2446,0.009126035
0.2448,0.009950095
0.245,0.01060423
0.2452,0.01284341
0.2454,0.0141967
0.2456,0.01407511
0.2458,0.01434329
0.246,0.01544669
0.2462,0.01658215
0.2464,0.01708584
0.2466,0.01666767
0.2468,0.01765523
0.247,0.01711651
0.2472,0.01842098
0.2474,0.01938462
0.2476,0.02080334
0.2478,0.021472
0.248,0.02012288
0.2482,0.0214276
0.2484,0.02293232
0.2486,0.02481522
0.2488,0.02586958
0.249,0.02464858
0.2492,0.02297585
0.2494,0.0215166
0.2496,0.02032042
0.2498,0.01947433
0.25,0.01837262
0.2502,0.01742772
0.2504,0.01639234
0.2506,0.01610342
0.2508,0.01583709
0.251,0.01446658
0.2512,0.01422454
0.2514,0.01364107
0.2516,0.01192882
0.2518,0.01006436
0.252,0.008924035
0.2522,0.00703508
0.2524,0.004379142
0.2526,0.00437836
0.2528,0.003629687
0.253,0.0004060335
0.2532,0.0005227081
0.2534,0.0001354716
0.2536,-0.0005666052
0.2538,-0.002305182
0.254,-0.004231722
0.2542,-0.003443043
0.2544,-0.004282007
0.2546,-0.005933096
0.2548,-0.005352654
0.255,-0.006873067
0.2552,-0.009413446
0.2554,-0.01156578
0.2556,-0.01441569
0.2558,-0.01472865
0.256,-0.01482605
0.2562,-0.01701465
0.2564,-0.01683804
0.2566,-0.0167527
0.2568,-0.01813265
0.257,-0.01837778
0.2572,-0.01921959
0.2574,-0.02018883
0.2576,-0.02064909
0.2578,-0.02090871
0.258,-0.02139112
0.2582,-0.02131421
0.2584,-0.02322379
0.2586,-0.02500998
0.2588,-0.02593571
0.259,-0.02575542
0.2592,-0.02480619
0.2594,-0.0225331
0.2596,-0.02277693
0.2598,-0.02185935
0.26,-0.02111757
0.2602,-0.0208636
0.2604,-0.02043905
0.2606,-0.01950198
0.2608,-0.01848229
0.261,-0.01773474
0.2612,-0.01692283
0.2614,-0.01588885
0.2616,-0.01413334
0.2618,-0.0125401
0.262,-0.01179664
0.2622,-0.01013298
0.2624,-0.008619599
0.2626,-0.005434881
0.2628,-0.002803607
0.263,-0.001832895
0.2632,-0.0005666902
0.2634,-0.001783616
0.2636,0.00061427
0.2638,0.003548179
0.264,0.004666294
0.2642,0.007149414
0.2644,0.008799651
0.2646,0.01064953
0.2648,0.0118867
0.265,0.01384624
0.2652,0.01577329
0.2654,0.01621483
0.2656,0.01679617
0.2658,0.01723525
0.266,0.01806766
0.2662,0.01806372
0.2664,0.02065336
0.2666,0.02120101
0.2668,0.02131259
0.267,0.02183962
0.2672,0.02188876
0.2674,0.02045412
0.2676,0.02068982
0.2678,0.02259783
0.268,0.02212697
0.2682,0.02129432
0.2684,0.02218465
0.2686,0.02163678
0.2688,0.02125148
0.269,0.02180916
0.2692,0.02281865
0.2694,0.02259136
0.2696,0.02114049
0.2698,0.02284905
0.27,0.0221931
0.2702,0.02075995
0.2704,0.02054651
0.2706,0.01921466
0.2708,0.01806268
0.271,0.0156392
0.2712,0.01426577
0.2714,0.01435374
0.2716,0.01292301
0.2718,0.01140744
0.272,0.009367423
0.2722,0.00767997
0.2724,0.005785631
0.2726,0.003574733
0.2728,0.002783766
0.273,0.002322447
0.2732,0.002109231
0.2734,0.002203163
0.2736,0.00080793
0.2738,-0.001599227
0.274,-0.00285689
0.2742,-0.003825754
0.2744,-0.006440866
0.2746,-0.00811067
0.2748,-0.008980922
0.275,-0.01100202
0.2752,-0.01416845
0.2754,-0.01662685
0.2756,-0.01764214
0.2758,-0.01761516
0.276,-0.01768743
0.2762,-0.01762217
0.2764,-0.0188588
0.2766,-0.0196846
0.2768,-0.01986456
0.277,-0.01888263
0.2772,-0.01959052
0.2774,-0.01966553
0.2776,-0.01940479
0.2778,-0.01925973
0.278,-0.01884996
0.2782,-0.01873666
0.2784,-0.01896718
0.2786,-0.01921995
0.2788,-0.01899345
0.279,-0.01726493
0.2792,-0.01772149
0.2794,-0.01950385
0.2796,-0.0186901
0.2798,-0.01694764
0.28,-0.01771006
0.2802,-0.0164924
0.2804,-0.01628191
0.2806,-0.01570404
0.2808,-0.01472716
0.281,-0.0142035
0.2812,-0.01335152
0.2814,-0.01222649
0.2816,-0.0115578
0.2818,-0.01124947
0.282,-0.01056226
0.2822,-0.007267776
0.2824,-0.004918669
0.2826,-0.00325554
0.2828,-0.0003169792
0.283,0.001920738
0.2832,0.003675112
0.2834,0.006281917
0.2836,0.008975923
0.2838,0.01090524
0.284,0.0110738
0.2842,0.01200291
0.2844,0.01193034
0.2846,0.01163894
0.2848,0.01249775
0.285,0.01282894
0.2852,0.01373903
0.2854,0.01636245
0.2856,0.01617923
0.2858,0.01570402
0.286,0.01556101
0.2862,0.01760286
0.2864,0.01886688
0.2866,0.01925956
0.2868,0.02189314
0.287,0.02370996
0.2872,0.02503964
0.2874,0.02402076
0.2876,0.02404398
0.2878,0.02423315
0.288,0.02491991
0.2882,0.02541677
0.2884,0.02614273
0.2886,0.02395688
0.2888,0.02264377
0.289,0.02242256
0.2892,0.02068936
0.2894,0.01921908
0.2896,0.01798151
0.2898,0.01696476
0.29,0.01790749
0.2902,0.01696093
0.2904,0.01681353
0.2906,0.01446817
0.2908,0.01056422
0.291,0.007411267
0.2912,0.004641623
0.2914,0.003976216
0.2916,0.002795453
0.2918,0.002344199
0.292,0.001392291
0.2922,0.0001224083
0.2924,-0.0008640049
0.2926,-0.00083061
0.2928,-0.0009731509
0.293,-0.002220917
0.2932,-0.004532448
0.2934,-0.003981577
0.2936,-0.003081402
0.2938,-0.002780751
0.294,-0.001614613
0.2942,-0.003244724
0.2944,-0.004934768
0.2946,-0.00590846
0.2948,-0.008412549
0.295,-0.01016775
0.2952,-0.01148729
0.2954,-0.01276407
0.2956,-0.01411105
0.2958,-0.01706116
0.296,-0.01791453
0.2962,-0.01708215
0.2964,-0.01913439
0.2966,-0.02078886
0.2968,-0.0223496
0.297,-0.02193931
0.2972,-0.02104743
0.2974,-0.02273387
0.2976,-0.02216604
0.2978,-0.02095514
0.298,-0.02331979
0.2982,-0.02331491
0.2984,-0.02301331
0.2986,-0.02230661
0.2988,-0.02187291
0.299,-0.02045549
0.2992,-0.02036935
0.2994,-0.02113644
0.2996,-0.02097607
0.2998,-0.02064762
0.3,-0.01919985
0.3002,-0.0191113
0.3004,-0.01845068
0.3006,-0.01626028
0.3008,-0.01431589
0.301,-0.01428135
0.3012,-0.01415605
0.3014,-0.01303372
0.3016,-0.0133401
0.3018,-0.01183469
0.302,-0.009972597
0.3022,-0.008319316
0.3024,-0.00697074
0.3026,-0.00724974
0.3028,-0.005050986
0.303,-0.003227985
0.3032,1.161394e-06
0.3034,0.001539089
0.3036,0.002496137
0.3038,0.002729654
0.304,0.003306982
0.3042,0.00645346
0.3044,0.008061277
0.3046,0.009661246
0.3048,0.01037252
0.305,0.01163824
0.3052,0.01107914
0.3054,0.01177325
0.3056,0.0125782
0.3058,0.01330955
0.306,0.01463868
0.3062,0.01578351
0.3064,0.01503894
0.3066,0.01617736
0.3068,0.01742532
0.307,0.01753944
0.3072,0.01728383
0.3074,0.01798876
0.3076,0.01817136
0.3078,0.02001065
0.308,0.02021576
0.3082,0.01962191
0.3084,0.02086554
0.3086,0.02113986
0.3088,0.02006397
0.309,0.01688023
0.3092,0.01706338
0.3094,0.01877437
0.3096,0.01900525
0.3098,0.01972009
0.31,0.01948457
0.3102,0.01942844
0.3104,0.01892575
0.3106,0.01752699
0.3108,0.01603947
0.311,0.01631431
0.3112,0.01433841
0.3114,0.01280332
0.3116,0.01075305
0.3118,0.009619825
0.312,0.008895304
0.3122,0.00908197
0.3124,0.009899929
0.3126,0.008968455
0.3128,0.007292887
0.313,0.00721379
0.3132,0.008461063
0.3134,0.008945266
0.3136,0.009245298
0.3138,0.009312948
0.314,0.007790201
0.3142,0.005182985
0.3144,0.002283989
0.3146,-0.0002714928
0.3148,-0.002934016
0.315,-0.006252715
0.3152,-0.008265865
0.3154,-0.007822696
0.3156,-0.01005747
0.3158,-0.01346495
0.316,-0.01519123
0.3162,-0.01615244
0.3164,-0.01791839
0.3166,-0.01886966
0.3168,-0.01989276
0.317,-0.02051702
0.3172,-0.0201031
0.3174,-0.01913228
0.3176,-0.02070848
0.3178,-0.02165659
0.318,-0.02147024
0.3182,-0.02116946
0.3184,-0.02076931
0.3186,-0.02097367
0.3188,-0.02155926
0.319,-0.02305462
0.3192,-0.02378419
0.3194,-0.0238369
0.3196,-0.02379721
0.3198,-0.02339096
0.32,-0.02189663
0.3202,-0.02034491
0.3204,-0.01844241
0.3206,-0.01649687
0.3208,-0.01582981
0.321,-0.01520282
0.3212,-0.01572487
0.3214,-0.01414431
0.3216,-0.01277794
0.3218,-0.01278209
0.322,-0.011593
0.3222,-0.01128402
0.3224,-0.01065942
0.3226,-0.009673587
0.3228,-0.006749762
0.323,-0.004908343
0.3232,-0.004942237
0.3234,-0.002570549
0.3236,-0.001057974
0.3238,0.000388324
0.324,0.002230018
0.3242,0.002294436
0.3244,0.001882669
0.3246,0.003849504
0.3248,0.005994727
0.325,0.007149586
0.3252,0.007830234
0.3254,0.007323775
0.3256,0.008961529
0.3258,0.01032828
0.326,0.01135153
0.3262,0.01198668
0.3264,0.01149698
0.3266,0.0136794
0.3268,0.01521195
0.327,0.01635958
0.3272,0.01610556
0.3274,0.01674374
0.3276,0.01948408
0.3278,0.01970583
0.328,0.02032834
0.3282,0.02097414
0.3284,0.0209072
0.3286,0.02167876
0.3288,0.0217746
0.329,0.02195958
0.3292,0.02148725
0.3294,0.02147689
0.3296,0.02166735
0.3298,0.02141913
0.33,0.02032145
0.3302,0.01954412
0.3304,0.01791721
0.3306,0.01719974
0.3308,0.01604642
0.331,0.01533344
0.3312,0.01460613
0.3314,0.01380064
0.3316,0.01207477
0.3318,0.0093734
0.332,0.009469788
0.3322,0.009500345
0.3324,0.007022084
0.3326,0.00551833
0.3328,0.003985391
0.333,0.002006158
0.3332,0.001582462
0.3334,0.0002600889
0.3336,-0.001743768
0.3338,-0.00441926
0.334,-0.00549848
0.3342,-0.006489744
0.3344,-0.006933002
0.3346,-0.007463889
0.3348,-0.008394921
0.335,-0.01010843
0.3352,-0.01177881
0.3354,-0.01238266
0.3356,-0.01254801
0.3358,-0.01367567
0.336,-0.01533289
0.3362,-0.01688533
0.3364,-0.01725206
0.3366,-0.01754069
0.3368,-0.01802295
0.337,-0.01911951
0.3372,-0.01981839
0.3374,-0.01971294
0.3376,-0.02033691
0.3378,-0.01968865
0.338,-0.02045518
0.3382,-0.02098585
0.3384,-0.02154859
0.3386,-0.02276306
0.3388,-0.0220334
0.339,-0.02144518
0.3392,-0.02215974
0.3394,-0.02193949
0.3396,-0.02155614
0.3398,-0.01975839
0.34,-0.01775829
0.3402,-0.01768031
0.3404,-0.01837211
0.3406,-0.01641002
0.3408,-0.01346235
0.341,-0.01391612
0.3412,-0.01303899
0.3414,-0.01169986
0.3416,-0.01156747
0.3418,-0.009353695
0.342,-0.008707254
0.3422,-0.007478883
0.3424,-0.007618303
0.3426,-0.006481288
0.3428,-0.004186947
0.343,-0.001361677
0.3432,0.0005753287
0.3434,0.001529513
0.3436,0.002776292
0.3438,0.004214209
0.344,0.005918315
0.3442,0.007117525
0.3444,0.008436566
0.3446,0.009965715
0.3448,0.01263252
0.345,0.01289509
0.3452,0.01399049
0.3454,0.01552964
0.3456,0.01600596
0.3458,0.01546006
0.346,0.01598855
0.3462,0.01708158
0.3464,0.01715138
0.3466,0.0162795
0.3468,0.01743681
0.347,0.0176941
0.3472,0.01805039
0.3474,0.02002301
0.3476,0.01929264
0.3478,0.01781146
0.348,0.01960902
0.3482,0.02069854
0.3484,0.0209528
0.3486,0.02101129
0.3488,0.01974479
0.349,0.02016942
0.3492,0.01929003
0.3494,0.01865076
0.3496,0.0197554
0.3498,0.01966012
0.35,0.01940336
0.3502,0.0177012
0.3504,0.01771363
0.3506,0.01504007
0.3508,0.01284884
0.351,0.01065374
0.3512,0.009855579
0.3514,0.009962477
0.3516,0.008902481
0.3518,0.008772704
0.352,0.007576925
0.3522,0.006538643
0.3524,0.005849448
0.3526,0.003891682
0.3528,0.002198861
0.353,0.001584974
0.3532,0.001092448
0.3534,-0.001443274
0.3536,-0.0042693
0.3538,-0.007215064
0.354,-0.01007767
0.3542,-0.01084344
0.3544,-0.01257056
0.3546,-0.01355342
0.3548,-0.01564092
0.355,-0.01699813
0.3552,-0.01842341
0.3554,-0.01937575
0.3556,-0.01988488
0.3558,-0.01909462
0.356,-0.01864144
0.3562,-0.01843073
0.3564,-0.01962977
0.3566,-0.01913153
0.3568,-0.01925751
0.357,-0.02023363
0.3572,-0.0206386
0.3574,-0.02099445
0.3576,-0.01926996
0.3578,-0.01987622
0.358,-0.02096871
0.3582,-0.02145101
0.3584,-0.02288606
0.3586,-0.02289332
0.3588,-0.02332479
0.359,-0.0215846
0.3592,-0.021305
0.3594,-0.02131945
0.3596,-0.02008829
0.3598,-0.01780233
0.36,-0.01775207
0.3602,-0.01790691
0.3604,-0.01792551
0.3606,-0.01599606
0.3608,-0.01452308
0.361,-0.01327521
0.3612,-0.01266927
0.3614,-0.01415314
0.3616,-0.01243455
0.3618,-0.01046779
0.362,-0.01050219
0.3622,-0.00850642
0.3624,-0.005161243
0.3626,-0.003977774
0.3628,-0.002652161
0.363,-0.001003609
0.3632,0.0001419764
0.3634,0.001076882
0.3636,0.002203931
0.3638,0.004067409
0.364,0.006696601
0.3642,0.008496475
0.3644,0.009707665
0.3646,0.01144169
0.3648,0.0118786
0.365,0.01220876
0.3652,0.01387544
0.3654,0.01467398
0.3656,0.01418613
0.3658,0.01603218
0.366,0.01800641
0.3662,0.01726583
0.3664,0.01665862
0.3666,0.01735746
0.3668,0.01877943
0.367,0.02100172
0.3672,0.02081063
0.3674,0.02120201
0.3676,0.02088877
0.3678,0.02105682
0.368,0.02174555
0.3682,0.02110322
0.3684,0.02165927
0.3686,0.02303091
0.3688,0.0220484
0.369,0.02181371
0.3692,0.02025521
0.3694,0.01804664
0.3696,0.01705458
0.3698,0.01819856
0.37,0.01932575
0.3702,0.01741166
0.3704,0.01547376
0.3706,0.01548881
0.3708,0.0166257
0.371,0.01574842
0.3712,0.01423096
0.3714,0.0133758
0.3716,0.01171749
0.3718,0.01049447
0.372,0.007960372
0.3722,0.006211445
0.3724,0.005825802
0.3726,0.004385492
0.3728,0.003094655
0.373,0.002666588
0.3732,0.000332965
0.3734,-0.001994545
0.3736,-0.003346398
0.3738,-0.005454135
0.374,-0.006334216
0.3742,-0.005517338
0.3744,-0.00599644
0.3746,-0.007756792
0.3748,-0.008376749
0.375,-0.01064753
0.3752,-0.01181538
0.3754,-0.01319167
0.3756,-0.0120956
0.3758,-0.01117219
0.376,-0.01253606
0.3762,-0.01327285
0.3764,-0.01408098
0.3766,-0.01579603
0.3768,-0.01626603
0.377,-0.01605353
0.3772,-0.01673548
0.3774,-0.01600628
0.3776,-0.01778671
0.3778,-0.01908294
0.378,-0.01840276
0.3782,-0.01966037
0.3784,-0.02033989
0.3786,-0.01977378
0.3788,-0.0183703
0.379,-0.01762394
0.3792,-0.01729843
0.3794,-0.01713725
0.3796,-0.01710205
0.3798,-0.01686247
0.38,-0.01497949
0.3802,-0.01418764
0.3804,-0.0133735
0.3806,-0.01228954
0.3808,-0.0116568
0.381,-0.01052868
0.3812,-0.009674042
0.3814,-0.009369676
0.3816,-0.008102804
0.3818,-0.007052728
0.382,-0.008092429
0.3822,-0.007945552
0.3824,-0.006086116
0.3826,-0.004822988
0.3828,-0.002996474
0.383,-0.002998485
0.3832,-0.002763987
0.3834,-0.001043744
0.3836,0.002257217
0.3838,0.003416892
0.384,0.004842676
0.3842,0.006511465
0.3844,0.008497316
0.3846,0.00978952
0.3848,0.01138197
0.385,0.01352409
0.3852,0.01394891
0.3854,0.01466482
0.3856,0.0160282
0.3858,0.01782083
0.386,0.01999862
0.3862,0.0210198
0.3864,0.02224887
0.3866,0.02296398
0.3868,0.02147223
0.387,0.02002962
0.3872,0.01893118
0.3874,0.01935323
0.3876,0.01866174
0.3878,0.0173552
0.388,0.01697038
0.3882,0.01623556
0.3884,0.01724671
0.3886,0.01730723
0.3888,0.01634088
0.389,0.01505163
0.3892,0.01585215
0.3894,0.01605161
0.3896,0.01723634
0.3898,0.01847214
0.39,0.01714956
0.3902,0.01664282
0.3904,0.01562585
0.3906,0.01497298
0.3908,0.0144544
0.391,0.01424354
0.3912,0.01311958
0.3914,0.01318517
0.3916,0.01166293
0.3918,0.01075563
0.392,0.008908518
0.3922,0.006651036
0.3924,0.005720569
0.3926,0.003513038
0.3928,0.0008905779
0.393,-0.001288384
0.3932,-0.001141187
0.3934,0.0006256166
0.3936,-0.001647524
0.3938,-0.003500554
0.394,-0.002135652
0.3942,-0.003713052
0.3944,-0.005072473
0.3946,-0.005702218
0.3948,-0.007089659
0.395,-0.008228168
0.3952,-0.008757312
0.3954,-0.01019746
0.3956,-0.01168319
0.3958,-0.01274585
0.396,-0.01382368
0.3962,-0.01394153
0.3964,-0.01631935
0.3966,-0.01643958
0.3968,-0.01705173
0.397,-0.01825498
0.3972,-0.01780335
0.3974,-0.0179731
0.3976,-0.01793001
0.3978,-0.01755475
0.398,-0.018206
0.3982,-0.01886186
0.3984,-0.01891857
0.3986,-0.01960174
0.3988,-0.01942881
0.399,-0.0176996
0.3992,-0.01697254
0.3994,-0.01732053
0.3996,-0.02062721
0.3998,-0.02495334
0.4,-0.0285815
0.4002,-0.03033164
0.4004,-0.03128016
0.4006,-0.03128795
0.4008,-0.03007483
0.401,-0.03072434
0.4012,-0.0283171
0.4014,-0.02541364
0.4016,-0.02334864
0.4018,-0.01981894
0.402,-0.01782698
0.4022,-0.0152378
0.4024,-0.01237195
0.4026,-0.007598017
0.4028,-0.003723228
0.403,-0.001574829
0.4032,0.001064596
0.4034,0.004967378
0.4036,0.008186713
0.4038,0.01120963
0.404,0.01486858
0.4042,0.01770493
0.4044,0.02011364
0.4046,0.02225885
0.4048,0.02422429
0.405,0.02467582
0.4052,0.02550058
0.4054,0.02567309
0.4056,0.02632879
0.4058,0.02682908
0.406,0.02768705
0.4062,0.02866981
0.4064,0.03137629
0.4066,0.03281334
0.4068,0.0322861
0.407,0.03267372
0.4072,0.03360942
0.4074,0.03330708
0.4076,0.03237451
0.4078,0.03153006
0.408,0.03060796
0.4082,0.03058987
0.4084,0.02818094
0.4086,0.02600445
0.4088,0.02344686
0.409,0.02225303
0.4092,0.02110736
0.4094,0.01730226
0.4096,0.01463227
0.4098,0.01390459
0.41,0.01457381
0.4102,0.01423301
0.4104,0.01284681
0.4106,0.01076193
0.4108,0.009785504
0.411,0.008990641
0.4112,0.009449155
0.4114,0.009308423
0.4116,0.01011464
0.4118,0.009430599
0.412,0.007988699
0.4122,0.00622597
0.4124,0.005747395
0.4126,0.00412526
0.4128,0.0007590791
0.413,-4.341142e-05
0.4132,-0.0006118522
0.4134,-0.002618707
0.4136,-0.005545695
0.4138,-0.008125729
0.414,-0.00984122
0.4142,-0.01158816
0.4144,-0.01346627
0.4146,-0.01508342
0.4148,-0.01596794
0.415,-0.01732439
0.4152,-0.01935332
0.4154,-0.01969683
0.4156,-0.02106386
0.4158,-0.02102971
0.416,-0.02231069
0.4162,-0.02368898
0.4164,-0.02314259
0.4166,-0.02319364
0.4168,-0.02287626
0.417,-0.0217525
0.4172,-0.02142919
0.4174,-0.02129544
0.4176,-0.02143316
0.4178,-0.02220736
0.418,-0.02150417
0.4182,-0.02076297
0.4184,-0.02079886
0.4186,-0.02312597
0.4188,-0.02159188
0.419,-0.0206157
0.4192,-0.02148573
0.4194,-0.02126263
0.4196,-0.02094933
0.4198,-0.01986714
0.42,-0.01803078
0.4202,-0.0157241
0.4204,-0.01518087
0.4206,-0.0140154
0.4208,-0.01395083
0.421,-0.01235394
0.4212,-0.01040347
0.4214,-0.009903154
0.4216,-0.009942215
0.4218,-0.008810229
0.422,-0.006632962
0.4222,-0.005367111
0.4224,-0.004652731
0.4226,-0.003720899
0.4228,-0.003365261
0.423,-0.002557474
0.4232,-0.001366764
0.4234,0.001150437
0.4236,0.004102779
0.4238,0.005291757
0.424,0.006314451
0.4242,0.00726198
0.4244,0.006971134
0.4246,0.008579731
0.4248,0.009546771
0.425,0.0105576
0.4252,0.01215073
0.4254,0.01224016
0.4256,0.01269129
0.4258,0.01169572
0.426,0.01073853
0.4262,0.01210501
0.4264,0.01432176
0.4266,0.01542786
0.4268,0.01583945
0.427,0.01584402
0.4272,0.01482191
0.4274,0.01594185
0.4276,0.01586769
0.4278,0.01460024
0.428,0.01605837
0.4282,0.0162043
0.4284,0.01605809
0.4286,0.01576087
0.4288,0.01552488
0.429,0.01651509
0.4292,0.01631725
0.4294,0.01579834
0.4296,0.01667739
0.4298,0.0167614
0.43,0.01832586
0.4302,0.01781864
0.4304,0.01557828
0.4306,0.01392793
0.4308,0.01181118
0.431,0.01083726
0.4312,0.008847365
0.4314,0.009339163
0.4316,0.008737496
0.4318,0.007424105
0.432,0.006890962
0.4322,0.006287388
0.4324,0.006045186
0.4326,0.006435669
0.4328,0.004072065
0.433,0.0023803
0.4332,0.0005569484
0.4334,-0.0006859726
0.4336,-0.001761441
0.4338,-0.003182234
0.434,-0.003692101
0.4342,-0.004707127
0.4344,-0.007496321
0.4346,-0.01059892
0.4348,-0.01291617
0.435,-0.01376922
0.4352,-0.01371358
0.4354,-0.01319078
0.4356,-0.01385276
0.4358,-0.01663299
0.436,-0.01934765
0.4362,-0.01986909
0.4364,-0.01866176
0.4366,-0.01762998
0.4368,-0.01546615
0.437,-0.01563103
0.4372,-0.01486472
0.4374,-0.01376453
0.4376,-0.0129084
0.4378,-0.01264139
0.438,-0.01261201
0.4382,-0.0128086
0.4384,-0.01431877
0.4386,-0.01245824
0.4388,-0.0116605
0.439,-0.01268486
0.4392,-0.01218807
0.4394,-0.01189768
0.4396,-0.01181452
0.4398,-0.011493
0.44,-0.0113038
0.4402,-0.01200254
0.4404,-0.009396849
0.4406,-0.007401712
0.4408,-0.007851724
0.441,-0.007587891
0.4412,-0.006558904
0.4414,-0.007471797
0.4416,-0.007316337
0.4418,-0.007693255
0.442,-0.007182666
0.4422,-0.005306839
0.4424,-0.004047918
0.4426,-0.003074272
0.4428,-0.001279352
0.443,0.0003664109
0.4432,0.0003322404
0.4434,0.0007747457
0.4436,0.002114272
0.4438,0.003837032
0.444,0.006076681
0.4442,0.006809609
0.4444,0.007143021
0.4446,0.00803235
0.4448,0.009105703
0.445,0.01056327
0.4452,0.01174302
0.4454,0.01190676
0.4456,0.0119108
0.4458,0.01252703
0.446,0.01331973
0.4462,0.01445252
0.4464,0.01658295
0.4466,0.0179574
0.4468,0.01837171
0.447,0.01704447
0.4472,0.0179089
0.4474,0.01819351
0.4476,0.01788573
0.4478,0.01688305
0.448,0.01585943
0.4482,0.01722676
0.4484,0.01561781
0.4486,0.01586204
0.4488,0.01607436
0.449,0.01584009
0.4492,0.01570334
0.4494,0.01669469
0.4496,0.01689289
0.4498,0.01640867
0.45,0.01682614
0.4502,0.01432988
0.4504,0.01357558
0.4506,0.01282479
0.4508,0.01186863
0.451,0.01149863
0.4512,0.00953141
0.4514,0.008332112
0.4516,0.01000986
0.4518,0.008319451
0.452,0.00531121
0.4522,0.004197685
0.4524,0.002644022
0.4526,0.002258461
0.4528,0.002013801
0.453,0.001072329
0.4532,0.0003452396
0.4534,-0.001722694
0.4536,-0.003755928
0.4538,-0.003105466
0.454,-0.002717745
0.4542,-0.002498547
0.4544,-0.004628682
0.4546,-0.005194731
0.4548,-0.007594028
0.455,-0.009643718
0.4552,-0.01004488
0.4554,-0.01105892
0.4556,-0.01208208
0.4558,-0.011989
0.456,-0.01231012
0.4562,-0.01483174
0.4564,-0.01432943
0.4566,-0.01301639
0.4568,-0.01346904
0.457,-0.01489257
0.4572,-0.01614898
0.4574,-0.01657053
0.4576,-0.01704209
0.4578,-0.01828258
0.458,-0.01797347
0.4582,-0.01803167
0.4584,-0.01828905
0.4586,-0.01742965
0.4588,-0.0173441
0.459,-0.0176987
0.4592,-0.01719886
0.4594,-0.01776984
0.4596,-0.01872771
0.4598,-0.01810171
0.46,-0.01687611
0.4602,-0.01571846
0.4604,-0.01494468
0.4606,-0.01391099
0.4608,-0.01280896
0.461,-0.01297761
0.4612,-0.01166374
0.4614,-0.01056909
0.4616,-0.01217996
0.4618,-0.0128063
0.462,-0.01123945
0.4622,-0.008657187
0.4624,-0.006767181
0.4626,-0.007067566
0.4628,-0.006645395
0.463,-0.005565245
0.4632,-0.004010908
0.4634,-0.00282407
0.4636,-0.0009492388
0.4638,0.001016183
0.464,0.000677349
0.4642,0.002675407
0.4644,0.003880994
0.4646,0.0043501
0.4648,0.005493654
0.465,0.008178925
0.4652,0.008898627
0.4654,0.009485041
0.4656,0.009914612
0.4658,0.01050607
0.466,0.01245676
0.4662,0.0137138
0.4664,0.01377116
0.4666,0.01511589
0.4668,0.0162131
0.467,0.01720091
0.4672,0.01920601
0.4674,0.01904966
0.4676,0.01904316
0.4678,0.01980308
0.468,0.02031659
0.4682,0.01991229
0.4684,0.0203618
0.4686,0.02042878
0.4688,0.01967029
0.469,0.01963652
0.4692,0.01838122
0.4694,0.01638834
0.4696,0.01611793
0.4698,0.01441429
0.47,0.0143561
0.4702,0.01433787
0.4704,0.01277781
0.4706,0.01158416
0.4708,0.0116104
0.471,0.01198167
0.4712,0.01212012
0.4714,0.01147178
0.4716,0.01100636
0.4718,0.01001242
0.472,0.009051973
0.4722,0.007927696
0.4724,0.006435968
0.4726,0.005007824
0.4728,0.003010375
0.473,0.002404725
0.4732,0.001817988
0.4734,-0.0006408408
0.4736,-0.001476825
0.4738,-0.003212372
0.474,-0.005977702
0.4742,-0.007146477
0.4744,-0.008838451
0.4746,-0.009757626
0.4748,-0.01066468
0.475,-0.01115477
0.4752,-0.01327837
0.4754,-0.01419331
0.4756,-0.01306943
0.4758,-0.01302839
0.476,-0.01442039
0.4762,-0.01518128
0.4764,-0.01545324
0.4766,-0.01486555
0.4768,-0.0147006
0.477,-0.01484712
0.4772,-0.01522496
0.4774,-0.01481883
0.4776,-0.0148391
0.4778,-0.01548835
0.478,-0.01585111
0.4782,-0.01590076
0.4784,-0.01761812
0.4786,-0.01690291
0.4788,-0.01563247
0.479,-0.01612377
0.4792,-0.01605013
0.4794,-0.01601687
0.4796,-0.01710468
0.4798,-0.01776554
0.48,-0.01667351
0.4802,-0.01667902
0.4804,-0.01590552
0.4806,-0.01379437
0.4808,-0.01202041
0.481,-0.01172976
0.4812,-0.01161248
0.4814,-0.01019134
0.4816,-0.009461457
0.4818,-0.008694932
0.482,-0.008155175
0.4822,-0.007267277
0.4824,-0.007407186
0.4826,-0.005781919
0.4828,-0.003489653
0.483,-0.003456398
0.4832,-0.002034745
0.4834,-0.001927367
0.4836,-0.0007052551
0.4838,0.002268297
0.484,0.003249984
0.4842,0.004667017
0.4844,0.006339765
0.4846,0.007178168
0.4848,0.007863567
0.485,0.009350975
0.4852,0.01017087
0.4854,0.01039944
0.4856,0.01144968
0.4858,0.01256034
0.486,0.01347048
0.4862,0.01332082
0.4864,0.01342236
0.4866,0.01348036
0.4868,0.01407951
0.487,0.01496868
0.4872,0.01622703
0.4874,0.01790203
0.4876,0.01960903
0.4878,0.02063078
0.488,0.02191519
0.4882,0.02285399
0.4884,0.02229566
0.4886,0.02222994
0.4888,0.02111201
0.489,0.01932289
0.4892,0.01969779
0.4894,0.02013804
0.4896,0.02099014
0.4898,0.02052149
0.49,0.01959709
0.4902,0.01941332
0.4904,0.01845338
0.4906,0.01606032
0.4908,0.01410574
0.491,0.01364751
0.4912,0.01298336
0.4914,0.01194404
0.4916,0.009793883
0.4918,0.007586714
0.492,0.006898688
0.4922,0.003945638
0.4924,0.003010357
0.4926,0.0009591893
0.4928,-0.001037133
0.493,-0.002490025
0.4932,-0.001849478
0.4934,0.0003413544
0.4936,-0.001995169
0.4938,-0.004634952
0.494,-0.006106646
0.4942,-0.006328242
0.4944,-0.007817293
0.4946,-0.009746037
0.4948,-0.01111818
0.495,-0.01052284
0.4952,-0.01161646
0.4954,-0.01254384
0.4956,-0.01449144
0.4958,-0.01530767
0.496,-0.01671966
0.4962,-0.01732643
0.4964,-0.01591795
0.4966,-0.01703612
0.4968,-0.01850208
0.497,-0.01917215
0.4972,-0.01969833
0.4974,-0.01947882
0.4976,-0.01836684
0.4978,-0.01917906
0.498,-0.0197243
0.4982,-0.02030762
0.4984,-0.0215387
0.4986,-0.01919548
0.4988,-0.01646292
0.499,-0.01766891
0.4992,-0.01735889
0.4994,-0.01763177
0.4996,-0.01769332
0.4998,-0.01667572
0.5,-0.01639104
0.5002,-0.0164672
0.5004,-0.01417185
0.5006,-0.01285656
0.5008,-0.0107632
0.501,-0.009318828
0.5012,-0.009052622
0.5014,-0.007851574
0.5016,-0.005891055
0.5018,-0.003317175
0.502,-0.002450472
0.5022,-0.003788041
0.5024,-0.003995816
0.5026,-0.003418802
0.5028,-0.002649365
0.503,-0.001444305
0.5032,0.0007502803
0.5034,0.00418064
0.5036,0.005307654
0.5038,0.007294302
0.504,0.009057932
0.5042,0.009298159
0.5044,0.01038507
0.5046,0.01057596
0.5048,0.0121173
0.505,0.01293454
0.5052,0.01284999
0.5054,0.01265838
0.5056,0.01416595
0.5058,0.01524918
0.506,0.01575148
0.5062,0.01412308
0.5064,0.01314832
0.5066,0.01526468
0.5068,0.01711265
0.507,0.01723422
0.5072,0.01733941
0.5074,0.01846945
0.5076,0.01854775
0.5078,0.01977814
0.508,0.02224728
0.5082,0.02518354
0.5084,0.02786839
0.5086,0.02838971
0.5088,0.02737938
0.509,0.02488839
0.5092,0.02432303
0.5094,0.0239063
0.5096,0.02257988
0.5098,0.02195225
0.51,0.01995522
0.5102,0.01720668
0.5104,0.01429279
0.5106,0.01275549
0.5108,0.01081976
0.511,0.009846625
0.5112,0.008819628
0.5114,0.007818729
0.5116,0.00842416
0.5118,0.005224642
0.512,0.002345513
0.5122,0.0005628766
0.5124,-0.001607172
0.5126,-0.002531056
0.5128,-0.003674439
0.513,-0.005182347
0.5132,-0.005754963
0.5134,-0.006888331
0.5136,-0.007657035
0.5138,-0.008654214
0.514,-0.009583971
0.5142,-0.01032405
0.5144,-0.01076397
0.5146,-0.01085973
0.5148,-0.01193791
0.515,-0.0131483
0.5152,-0.01207627
0.5154,-0.01289314
0.5156,-0.01398557
0.5158,-0.01405474
0.516,-0.01346922
0.5162,-0.01255885
0.5164,-0.01263648
0.5166,-0.01245754
0.5168,-0.01284744
0.517,-0.01259862
0.5172,-0.01296648
0.5174,-0.01392249
0.5176,-0.0138076
0.5178,-0.01490909
0.518,-0.01695995
0.5182,-0.01729417
0.5184,-0.01735938
0.5186,-0.01900076
0.5188,-0.01990969
0.519,-0.0211485
0.5192,-0.01958161
0.5194,-0.01746162
0.5196,-0.01818286
0.5198,-0.01682231
0.52,-0.0151515
0.5202,-0.01399458
0.5204,-0.01223502
0.5206,-0.01072501
0.5208,-0.01111711
0.521,-0.01214612
0.5212,-0.01266313
0.5214,-0.01164176
0.5216,-0.01235094
0.5218,-0.01090165
0.522,-0.009829984
0.5222,-0.008763097
0.5224,-0.006864021
0.5226,-0.005506277
0.5228,-0.004740654
0.523,-0.003762015
0.5232,-0.002387122
0.5234,-0.0007355373
0.5236,-0.0002816136
0.5238,-0.0003372908
0.524,0.001998393
0.5242,0.003101178
0.5244,0.003000351
0.5246,0.004977982
0.5248,0.005583166
0.525,0.006275752
0.5252,0.007645924
0.5254,0.009219293
0.5256,0.01331214
0.5258,0.01619312
0.526,0.01680538
0.5262,0.01803736
0.5264,0.02004408
0.5266,0.02215701
0.5268,0.02355038
0.527,0.02501964
0.5272,0.02804727
0.5274,0.02876135
0.5276,0.02654968
0.5278,0.02312114
0.528,0.01923459
0.5282,0.01443677
0.5284,0.01033214
0.5286,0.007558032
0.5288,0.005491744
0.529,0.001803897
0.5292,-0.000470147
0.5294,0.0004731723
0.5296,0.002176016
0.5298,0.004438988
0.53,0.006318894
0.5302,0.005797842
0.5304,0.007303727
0.5306,0.008007961
0.5308,0.008730493
0.531,0.01039028
0.5312,0.01076218
0.5314,0.01279098
0.5316,0.01374083
0.5318,0.01456273
0.532,0.01544074
0.5322,0.01481591
0.5324,0.01530376
0.5326,0.0144559
0.5328,0.01391772
0.533,0.0124511
0.5332,0.01140394
0.5334,0.00975947
0.5336,0.007048637
0.5338,0.006389074
0.534,0.003577904
0.5342,0.00265915
0.5344,0.002674132
0.5346,0.001502403
0.5348,6.291449e-05
0.535,0.0003567003
0.5352,0.002096499
0.5354,0.001202028
0.5356,-0.001147156
0.5358,-0.0005788186
0.536,-0.002366862
0.5362,-0.002536909
0.5364,-0.003399444
0.5366,-0.007323247
0.5368,-0.009940382
0.537,-0.01229089
0.5372,-0.01558992
0.5374,-0.02073375
0.5376,-0.024324
0.5378,-0.0246367
0.538,-0.02567654
0.5382,-0.02750793
0.5384,-0.02884533
0.5386,-0.02891172
0.5388,-0.0282832
0.539,-0.02659702
0.5392,-0.02347675
0.5394,-0.02284271
0.5396,-0.02247601
0.5398,-0.02195834
0.54,-0.02277267
0.5402,-0.02140048
0.5404,-0.02015345
0.5406,-0.01891226
0.5408,-0.01801739
0.541,-0.01743512
0.5412,-0.01727858
0.5414,-0.01598086
0.5416,-0.01422183
0.5418,-0.0131439
0.542,-0.01275068
0.5422,-0.009908664
0.5424,-0.009028871
0.5426,-0.007968792
0.5428,-0.00712143
0.543,-0.006549242
0.5432,-0.007419345
0.5434,-0.005962846
0.5436,-0.001548597
0.5438,0.0006501316
0.544,0.002090133
0.5442,0.005478153
0.5444,0.008247933
0.5446,0.009313877
0.5448,0.01152238
0.545,0.01386574
0.5452,0.01515521
0.5454,0.01626571
0.5456,0.01664305
0.5458,0.01734739
0.546,0.01751234
0.5462,0.01608024
0.5464,0.01695557
0.5466,0.01676309
0.5468,0.01752741
0.547,0.0176217
0.5472,0.01773224
0.5474,0.01629155
0.5476,0.01593095
0.5478,0.01687596
0.548,0.01425149
0.5482,0.0157627
0.5484,0.0175357
0.5486,0.01659972
0.5488,0.01592042
0.549,0.01751806
0.5492,0.01821087
0.5494,0.01670377
0.5496,0.01618108
0.5498,0.01567929
0.55,0.01494059
0.5502,0.01385327
0.5504,0.01352902
0.5506,0.01231162
0.5508,0.01040761
0.551,0.009842186
0.5512,0.009076829
0.5514,0.009813737
0.5516,0.009578721
0.5518,0.008461664
0.552,0.006982917
0.5522,0.005022388
0.5524,0.003761641
0.5526,0.002487373
0.5528,0.002326419
0.553,0.001475458
0.5532,0.002923516
0.5534,0.003501003
0.5536,0.003023059
0.5538,0.001711545
0.554,-0.0008590418
0.5542,-0.002029782
0.5544,-0.004958187
0.5546,-0.007131947
0.5548,-0.007354857
0.555,-0.009854075
0.5552,-0.009380745
0.5554,-0.0110101
0.5556,-0.01385336
0.5558,-0.01498251
0.556,-0.01638314
0.5562,-0.0162023
0.5564,-0.01605728
0.5566,-0.01570567
0.5568,-0.01607507
0.557,-0.01594455
0.5572,-0.01606746
0.5574,-0.01606101
0.5576,-0.01686812
0.5578,-0.01746879
0.558,-0.01788905
0.5582,-0.01792036
0.5584,-0.01835122
0.5586,-0.01918628
0.5588,-0.01798982
0.559,-0.01725861
0.5592,-0.01702191
0.5594,-0.01694167
0.5596,-0.01575023
0.5598,-0.01631799
0.56,-0.01557016
0.5602,-0.01522509
0.5604,-0.01520617
0.5606,-0.01246882
0.5608,-0.01097543
0.561,-0.01172998
0.5612,-0.01133074
0.5614,-0.009748949
0.5616,-0.008952571
0.5618,-0.009003797
0.562,-0.007661378
0.5622,-0.006931399
0.5624,-0.006509279
0.5626,-0.004587784
0.5628,-0.004173943
0.563,-0.002587698
0.5632,-0.002396285
0.5634,-0.001878542
0.5636,0.0001528627
0.5638,0.00262445
0.564,0.003916661
0.5642,0.005080011
0.5644,0.005791576
0.5646,0.006520859
0.5648,0.009135
0.565,0.01133056
0.5652,0.011831
0.5654,0.01367949
0.5656,0.01407795
0.5658,0.01473528
0.566,0.01536051
0.5662,0.01741579
0.5664,0.01828564
0.5666,0.01673497
0.5668,0.01675191
0.567,0.01695889
0.5672,0.01819257
0.5674,0.01828899
0.5676,0.01818768
0.5678,0.01800609
0.568,0.01862982
0.5682,0.019718
0.5684,0.01910074
0.5686,0.01841197
0.5688,0.01742747
0.569,0.01901391
0.5692,0.01895395
0.5694,0.01893361
0.5696,0.019122
0.5698,0.01924031
0.57,0.01904566
0.5702,0.01891684
0.5704,0.01670257
0.5706,0.01578513
0.5708,0.01410518
0.571,0.01319522
0.5712,0.01213473
0.5714,0.01014316
0.5716,0.00926715
0.5718,0.008354857
0.572,0.007077483
0.5722,0.005637486
0.5724,0.004648257
0.5726,0.002620124
0.5728,0.001881108
0.573,-0.0001128168
0.5732,-0.001343621
0.5734,-0.002691946
0.5736,-0.002318002
0.5738,-0.002799123
0.574,-0.002670878
0.5742,-0.00481145
0.5744,-0.006312525
0.5746,-0.008008327
0.5748,-0.007928702
0.575,-0.01023505
0.5752,-0.01352151
0.5754,-0.01440693
0.5756,-0.0144975
0.5758,-0.0141941
0.576,-0.01614184
0.5762,-0.01534938
0.5764,-0.01486124
0.5766,-0.01755571
0.5768,-0.01847583
0.577,-0.01946294
0.5772,-0.01902245
0.5774,-0.0182737
0.5776,-0.01818363
0.5778,-0.0189048
0.578,-0.01939203
0.5782,-0.02020669
0.5784,-0.02070481
0.5786,-0.02141145
0.5788,-0.0207206
0.579,-0.01984037
0.5792,-0.01900735
0.5794,-0.01747308
0.5796,-0.01776248
0.5798,-0.01616394
0.58,-0.01550814
0.5802,-0.01442752
0.5804,-0.01480211
0.5806,-0.01440973
0.5808,-0.0127628
0.581,-0.01298286
0.5812,-0.01371367
0.5814,-0.01306857
0.5816,-0.01260315
0.5818,-0.01182776
0.582,-0.01057587
0.5822,-0.008819913
0.5824,-0.006936018
0.5826,-0.00670389
0.5828,-0.005296292
0.583,-0.004106686
0.5832,-0.002242899
0.5834,0.0003488027
0.5836,0.00246071
0.5838,0.003530663
0.584,0.004869167
0.5842,0.006073553
0.5844,0.007661992
0.5846,0.009413431
0.5848,0.009333341
0.585,0.01198663
0.5852,0.01353065
0.5854,0.01358834
0.5856,0.01367934
0.5858,0.01480192
0.586,0.01562402
0.5862,0.01732883
0.5864,0.01729957
0.5866,0.01797472
0.5868,0.02021113
0.587,0.02045883
0.5872,0.01948785
0.5874,0.01824752
0.5876,0.01707146
0.5878,0.0186863
0.588,0.01840945
0.5882,0.01802159
0.5884,0.01857442
0.5886,0.01878964
0.5888,0.01979774
0.589,0.02219319
0.5892,0.02379437
0.5894,0.02195816
0.5896,0.02133805
0.5898,0.01968293
0.59,0.01939077
0.5902,0.01890923
0.5904,0.01657006
0.5906,0.01544205
0.5908,0.01365079
0.591,0.01215673
0.5912,0.01139114
0.5914,0.01099374
0.5916,0.01031856
0.5918,0.008219524
0.592,0.006910712
0.5922,0.005875848
0.5924,0.00346932
0.5926,0.002128041
0.5928,0.0005356902
0.593,-0.0002516
0.5932,-0.00073462
0.5934,-0.002989979
0.5936,-0.004056339
0.5938,-0.004472141
0.594,-0.004642034
0.5942,-0.006264935
0.5944,-0.007546533
0.5946,-0.009460582
0.5948,-0.0106553
0.595,-0.009495724
0.5952,-0.009495279
0.5954,-0.01141055
0.5956,-0.01173831
0.5958,-0.01340367
0.596,-0.01395192
0.5962,-0.01316618
0.5964,-0.01293021
0.5966,-0.01501121
0.5968,-0.01637326
0.597,-0.01652702
0.5972,-0.01736457
0.5974,-0.01709448
0.5976,-0.01539281
0.5978,-0.01565008
0.598,-0.01505511
0.5982,-0.01499891
0.5984,-0.01579504
0.5986,-0.01799522
0.5988,-0.01902314
0.599,-0.01962152
0.5992,-0.02011156
0.5994,-0.02088418
0.5996,-0.02143381
0.5998,-0.02087187
0.6,-0.01942174
0.6002,-0.01772542
0.6004,-0.01734693
0.6006,-0.01614842
0.6008,-0.01386966
0.601,-0.01325681
0.6012,-0.0132
0.6014,-0.01224307
0.6016,-0.01039298
0.6018,-0.009593631
0.602,-0.01005154
0.6022,-0.009347577
0.6024,-0.007811961
0.6026,-0.006112567
0.6028,-0.004398503
0.603,-0.00272253
0.6032,-0.001045842
0.6034,3.599922e-05
0.6036,0.0009961026
0.6038,0.002052367
0.604,0.003787719
0.6042,0.005504028
0.6044,0.006277706
0.6046,0.006564441
0.6048,0.009346393
0.605,0.01232778
0.6052,0.01204572
0.6054,0.01208217
0.6056,0.01493915
0.6058,0.01633671
0.606,0.01628509
0.6062,0.01628479
0.6064,0.01807258
0.6066,0.01972566
0.6068,0.01973668
0.607,0.01928999
0.6072,0.01891559
0.6074,0.0194592
0.6076,0.02026859
0.6078,0.0192959
0.608,0.01949573
0.6082,0.01957882
0.6084,0.01983879
0.6086,0.01917337
0.6088,0.0201022
0.609,0.01876001
0.6092,0.01567878
0.6094,0.0168396
0.6096,0.0165165
0.6098,0.01548549
0.61,0.01495376
0.6102,0.01482827
0.6104,0.01392328
0.6106,0.01360251
0.6108,0.01213934
0.611,0.01120737
0.6112,0.00888656
0.6114,0.008373826
0.6116,0.007971571
0.6118,0.007655594
0.612,0.005614498
0.6122,0.003586883
0.6124,0.001399857
0.6126,0.0006734427
0.6128,-0.0004196433
0.613,-0.002204446
0.6132,-0.003986325
0.6134,-0.005531725
0.6136,-0.008191195
0.6138,-0.009411733
0.614,-0.01043162
0.6142,-0.01191392
0.6144,-0.009995822
0.6146,-0.010864
0.6148,-0.01183212
0.615,-0.01236708
0.6152,-0.01220565
0.6154,-0.01340595
0.6156,-0.01358532
0.6158,-0.01224924
0.616,-0.01216683
0.6162,-0.01187883
0.6164,-0.0125562
0.6166,-0.01280667
0.6168,-0.01432918
0.617,-0.01540154
0.6172,-0.0156023
0.6174,-0.01672689
0.6176,-0.01611603
0.6178,-0.01682723
0.618,-0.01724614
0.6182,-0.01732645
0.6184,-0.01831426
0.6186,-0.01838048
0.6188,-0.01699278
0.619,-0.0167413
0.6192,-0.01614722
0.6194,-0.01586836
0.6196,-0.01560282
0.6198,-0.01521445
0.62,-0.01510812
0.6202,-0.014673
0.6204,-0.0146438
0.6206,-0.01451583
0.6208,-0.01411543
0.621,-0.01262527
0.6212,-0.01209841
0.6214,-0.01085368
0.6216,-0.008677878
0.6218,-0.007919375
0.622,-0.006852094
0.6222,-0.00438659
0.6224,-0.002180911
0.6226,-0.001884122
0.6228,-0.0005419396
0.623,-0.0004244151
0.6232,0.0002340305
0.6234,0.001923408
0.6236,0.003580263
0.6238,0.004798895
0.624,0.005511804
0.6242,0.007115965
0.6244,0.008297984
0.6246,0.01045704
0.6248,0.01094516
0.625,0.01097865
0.6252,0.01101215
0.6254,0.01172771
0.6256,0.01327319
0.6258,0.01397799
0.626,0.01575632
0.6262,0.01641392
0.6264,0.01861618
0.6266,0.01987865
0.6268,0.02011475
0.627,0.02070539
0.6272,0.02145547
0.6274,0.02257748
0.6276,0.0215994
0.6278,0.02071046
0.628,0.01975474
0.6282,0.01993402
0.6284,0.02029403
0.6286,0.02002104
0.6288,0.01962097
0.629,0.0211264
0.6292,0.02193673
0.6294,0.02063709
0.6296,0.01789267
0.6298,0.01676766
0.63,0.01575905
0.6302,0.01566115
0.6304,0.01439231
0.6306,0.01469895
0.6308,0.01427844
0.631,0.01324873
0.6312,0.01268536
0.6314,0.0104123
0.6316,0.007968523
0.6318,0.0075943
0.632,0.007991826
0.6322,0.006353381
0.6324,0.003715975
0.6326,0.001925783
0.6328,-0.0003466443
0.633,-0.001535589
0.6332,-0.003028849
0.6334,-0.005650035
0.6336,-0.006918053
0.6338,-0.008089093
0.634,-0.009974183
0.6342,-0.009713827
0.6344,-0.01012546
0.6346,-0.01234852
0.6348,-0.01458146
0.635,-0.01493756
0.6352,-0.01436571
0.6354,-0.01344712
0.6356,-0.01394211
0.6358,-0.0141792
0.636,-0.01483963
0.6362,-0.01485574
0.6364,-0.01450166
0.6366,-0.01493349
0.6368,-0.01569313
0.637,-0.01602972
0.6372,-0.01469368
0.6374,-0.01381688
0.6376,-0.01522608
0.6378,-0.01557817
0.638,-0.01449939
0.6382,-0.01466324
0.6384,-0.01447667
0.6386,-0.01343281
0.6388,-0.01371211
0.639,-0.01206023
0.6392,-0.01185395
0.6394,-0.01269642
0.6396,-0.01335109
0.6398,-0.014534
0.64,-0.0126928
0.6402,-0.01157911
0.6404,-0.01080008
0.6406,-0.009728187
0.6408,-0.009306829
0.641,-0.009487937
0.6412,-0.01038844
0.6414,-0.008673741
0.6416,-0.007186336
0.6418,-0.008850782
0.642,-0.008600499
0.6422,-0.007023224
0.6424,-0.005676733
0.6426,-0.005619504
0.6428,-0.004751186
0.643,-0.004764253
0.6432,-0.002206907
0.6434,0.0009955697
0.6436,0.001753526
0.6438,0.003554415
0.644,0.003156479
0.6442,0.003128777
0.6444,0.003484404
0.6446,0.004456052
0.6448,0.00472811
0.645,0.005531458
0.6452,0.006527776
0.6454,0.008945894
0.6456,0.009790931
0.6458,0.009803963
0.646,0.01152263
0.6462,0.01236693
0.6464,0.01328988
0.6466,0.01361707
0.6468,0.01377041
0.647,0.01315472
0.6472,0.01386668
0.6474,0.01534957
0.6476,0.01595086
0.6478,0.01594166
0.648,0.01562397
0.6482,0.01611041
0.6484,0.01518619
0.6486,0.01392433
0.6488,0.01382259
0.649,0.01530503
0.6492,0.01636463
0.6494,0.01712654
0.6496,0.01483525
0.6498,0.01466322
0.65,0.01459093
0.6502,0.01353623
0.6504,0.01162019
0.6506,0.01161405
0.6508,0.01102506
0.651,0.009808268
0.6512,0.009371893
0.6514,0.00879407
0.6516,0.007125918
0.6518,0.006047178
0.652,0.005373479
0.6522,0.004305448
0.6524,0.003113916
0.6526,0.002256876
0.6528,0.0009354671
0.653,0.001216144
0.6532,0.0002256753
0.6534,-0.0008874792
0.6536,-0.001475127
0.6538,-0.002811372
0.654,-0.00401594
0.6542,-0.005170548
0.6544,-0.006934723
0.6546,-0.007292334
0.6548,-0.007899099
0.655,-0.009810175
0.6552,-0.01032123
0.6554,-0.01202261
0.6556,-0.01229293
0.6558,-0.01191331
0.656,-0.01126091
0.6562,-0.01039718
0.6564,-0.01251688
0.6566,-0.01371617
0.6568,-0.01446145
0.657,-0.01458114
0.6572,-0.01566252
0.6574,-0.01728847
0.6576,-0.01723123
0.6578,-0.01777033
0.658,-0.01880065
0.6582,-0.01891045
0.6584,-0.01797142
0.6586,-0.01722199
0.6588,-0.01677369
0.659,-0.01757096
0.6592,-0.01769046
0.6594,-0.01677961
0.6596,-0.01671985
0.6598,-0.01690917
0.66,-0.01692
0.6602,-0.01531604
0.6604,-0.01290691
0.6606,-0.01300322
0.6608,-0.01294336
0.661,-0.01208119
0.6612,-0.01144325
0.6614,-0.01020431
0.6616,-0.008951796
0.6618,-0.00796777
0.662,-0.007684079
0.6622,-0.005980111
0.6624,-0.004242618
0.6626,-0.00241046
0.6628,-0.002191638
0.663,-0.001808768
0.6632,-0.002005999
0.6634,0.0006315858
0.6636,0.00245349
0.6638,0.002197107
0.664,0.003291069
0.6642,0.002762521
0.6644,0.003886918
0.6646,0.006016722
0.6648,0.008447533
0.665,0.009272533
0.6652,0.01018267
0.6654,0.01147283
0.6656,0.0116769
0.6658,0.01335845
0.666,0.01439502
0.6662,0.01497665
0.6664,0.01504411
0.6666,0.01509404
0.6668,0.01497481
0.667,0.01579407
0.6672,0.01677388
0.6674,0.01801498
0.6676,0.01959754
0.6678,0.0186361
0.668,0.01817635
0.6682,0.01899769
0.6684,0.01812727
0.6686,0.01800596
0.6688,0.01716144
0.669,0.01754134
0.6692,0.01732465
0.6694,0.01685068
0.6696,0.01720775
0.6698,0.01552549
0.67,0.01334503
0.6702,0.01348814
0.6704,0.0111616
0.6706,0.01111655
0.6708,0.01108377
0.671,0.01014591
0.6712,0.008976026
0.6714,0.008184672
0.6716,0.008018008
0.6718,0.008624518
0.672,0.007223487
0.6722,0.00529925
0.6724,0.00568306
0.6726,0.003762195
0.6728,0.001166736
0.673,0.0001860711
0.6732,-0.001150014
0.6734,-0.001844502
0.6736,-0.001731309
0.6738,-0.002466731
0.674,-0.005203434
0.6742,-0.006807204
0.6744,-0.007893374
0.6746,-0.01034125
0.6748,-0.01223922
0.675,-0.01113851
0.6752,-0.01112841
0.6754,-0.01253338
0.6756,-0.0123398
0.6758,-0.01187715
0.676,-0.01324106
0.6762,-0.01450774
0.6764,-0.01418244
0.6766,-0.0152192
0.6768,-0.01673649
0.677,-0.01832502
0.6772,-0.01983274
0.6774,-0.01908564
0.6776,-0.01801241
0.6778,-0.01743198
0.678,-0.01712788
0.6782,-0.01783257
0.6784,-0.01774469
0.6786,-0.01724689
0.6788,-0.01721884
0.679,-0.01708446
0.6792,-0.01525605
0.6794,-0.01475472
0.6796,-0.01605465
0.6798,-0.01641057
0.68,-0.01753178
0.6802,-0.01586612
0.6804,-0.01309697
0.6806,-0.01281362
0.6808,-0.01221625
0.681,-0.01014763
0.6812,-0.008328319
0.6814,-0.005991662
0.6816,-0.004329653
0.6818,-0.005483915
0.682,-0.005284732
0.6822,-0.004813157
0.6824,-0.003637411
0.6826,-0.001206124
0.6828,0.000620467
0.683,0.001746273
0.6832,0.003265929
0.6834,0.005253261
0.6836,0.005910522
0.6838,0.007533166
0.684,0.008219618
0.6842,0.008683281
0.6844,0.008681565
0.6846,0.01037597
0.6848,0.01113381
0.685,0.01027866
0.6852,0.01098019
0.6854,0.01152268
0.6856,0.01146716
0.6858,0.01253336
0.686,0.01208578
0.6862,0.01269019
0.6864,0.01413644
0.6866,0.01494349
0.6868,0.01387117
0.687,0.0129782
0.6872,0.01315242
0.6874,0.01450203
0.6876,0.0147736
0.6878,0.01442823
0.688,0.01562489
0.6882,0.01679389
0.6884,0.01608028
0.6886,0.01426136
0.6888,0.01374361
0.689,0.01354696
0.6892,0.01329307
0.6894,0.01340921
0.6896,0.01473092
0.6898,0.01337639
0.69,0.01195969
0.6902,0.01102337
0.6904,0.01150928
0.6906,0.01070507
0.6908,0.01225728
0.691,0.01149194
0.6912,0.009111431
0.6914,0.009166298
0.6916,0.009360767
0.6918,0.00871283
0.692,0.009072079
0.6922,0.008090341
0.6924,0.005479651
0.6926,0.003950792
0.6928,0.00422714
0.693,0.00442887
0.6932,0.003894012
0.6934,0.003038005
0.6936,0.00293826
0.6938,0.001684572
0.694,-0.000493006
0.6942,-0.001751399
0.6944,-0.003500551
0.6946,-0.004571414
0.6948,-0.005611605
0.695,-0.007858112
0.6952,-0.009399276
0.6954,-0.01111091
0.6956,-0.01297265
0.6958,-0.01429384
0.696,-0.01522855
0.6962,-0.01565371
0.6964,-0.01535612
0.6966,-0.01630774
0.6968,-0.01541137
0.697,-0.01583035
0.6972,-0.01803727
0.6974,-0.01780046
0.6976,-0.01787556
0.6978,-0.01703338
0.698,-0.01839895
0.6982,-0.0183005
0.6984,-0.01746475
0.6986,-0.01922113
0.6988,-0.01967786
0.699,-0.0204519
0.6992,-0.01985249
0.6994,-0.02022751
0.6996,-0.02085264
0.6998,-0.01923534
0.7,-0.01753843
0.7002,-0.01494759
0.7004,-0.01491151
0.7006,-0.01425093
0.7008,-0.01292455
0.701,-0.01181539
0.7012,-0.01121784
0.7014,-0.01106587
0.7016,-0.01099746
0.7018,-0.009783577
0.702,-0.008579105
0.7022,-0.007221751
0.7024,-0.004817425
0.7026,-0.003748521
0.7028,-0.002313595
0.703,0.0004430177
0.7032,0.002465877
0.7034,0.002515864
0.7036,0.00231156
0.7038,0.003186805
0.704,0.005334324
0.7042,0.006704409
0.7044,0.008003654
0.7046,0.006679179
0.7048,0.007743784
0.705,0.008080448
0.7052,0.007480683
0.7054,0.008048845
0.7056,0.009926607
0.7058,0.0123088
0.706,0.01289934
0.7062,0.01361634
0.7064,0.01429406
0.7066,0.01487292
0.7068,0.01617888
0.707,0.01752431
0.7072,0.01868226
0.7074,0.01832985
0.7076,0.01941854
0.7078,0.01878005
0.708,0.01804364
0.7082,0.01957803
0.7084,0.01984889
0.7086,0.01834228
0.7088,0.01956212
0.709,0.02151278
0.7092,0.02114763
0.7094,0.01997909
0.7096,0.01751374
0.7098,0.01779342
0.71,0.01785766
0.7102,0.01591389
0.7104,0.01513178
0.7106,0.01364012
0.7108,0.01184256
0.711,0.01063017
0.7112,0.009921174
0.7114,0.009043901
0.7116,0.007491044
0.7118,0.007404983
0.712,0.00610071
0.7122,0.005966124
0.7124,0.004063438
0.7126,0.001439938
0.7128,0.001985688
0.713,0.001306951
0.7132,0.0007151798
0.7134,-0.001569424
0.7136,-0.00370453
0.7138,-0.00350555
0.714,-0.004925925
0.7142,-0.006559689
0.7144,-0.007447151
0.7146,-0.00923664
0.7148,-0.0107228
0.715,-0.011174
0.7152,-0.01112052
0.7154,-0.01192858
0.7156,-0.01284344
0.7158,-0.01310267
0.716,-0.01243651
0.7162,-0.01266838
0.7164,-0.01421813
0.7166,-0.01435708
0.7168,-0.01552388
0.717,-0.01644626
0.7172,-0.0165739
0.7174,-0.01713533
0.7176,-0.01890593
0.7178,-0.01894451
0.718,-0.01847367
0.7182,-0.01766553
0.7184,-0.01737953
0.7186,-0.01611342
0.7188,-0.01491026
0.719,-0.01302415
0.7192,-0.01209557
0.7194,-0.01359192
0.7196,-0.01391363
0.7198,-0.01511774
0.72,-0.01467979
0.7202,-0.01389749
0.7204,-0.01315241
0.7206,-0.01215282
0.7208,-0.01090317
0.721,-0.009343066
0.7212,-0.009434887
0.7214,-0.008318045
0.7216,-0.008070777
0.7218,-0.007476257
0.722,-0.006122753
0.7222,-0.004533059
0.7224,-0.004201573
0.7226,-0.004927339
0.7228,-0.004430489
0.723,-0.002725845
0.7232,-0.001737224
0.7234,-0.000435409
0.7236,0.001525694
0.7238,0.002180713
0.724,0.00310313
0.7242,0.004511741
0.7244,0.005802202
0.7246,0.007710958
0.7248,0.01016544
0.725,0.01208221
0.7252,0.01355591
0.7254,0.01497097
0.7256,0.01554442
0.7258,0.01661345
0.726,0.01679715
0.7262,0.01882503
0.7264,0.02090219
0.7266,0.0216138
0.7268,0.0224699
0.727,0.02219072
0.7272,0.02112261
0.7274,0.02118582
0.7276,0.02237991
0.7278,0.02118991
0.728,0.01907833
0.7282,0.01762623
0.7284,0.01631276
0.7286,0.01711775
0.7288,0.01782036
0.729,0.01707119
0.7292,0.0164242
0.7294,0.01624203
0.7296,0.01543649
0.7298,0.01409747
0.73,0.01213773
0.7302,0.009640752
0.7304,0.009147869
0.7306,0.007718323
0.7308,0.007309928
0.731,0.006799223
0.7312,0.005415029
0.7314,0.006790462
0.7316,0.006423529
0.7318,0.005178057
0.732,0.003367814
0.7322,0.003837388
0.7324,0.004555398
0.7326,0.002959507
0.7328,-0.0001233759
0.733,-0.002568575
0.7332,-0.004472876
0.7334,-0.00546407
0.7336,-0.005202103
0.7338,-0.004488913
0.734,-0.004996471
0.7342,-0.006950441
0.7344,-0.008659231
0.7346,-0.01014103
0.7348,-0.0113417
0.735,-0.01077215
0.7352,-0.01315661
0.7354,-0.014479
0.7356,-0.01581341
0.7358,-0.01644872
0.736,-0.0154403
0.7362,-0.01590946
0.7364,-0.01620871
0.7366,-0.01590274
0.7368,-0.0169232
0.737,-0.01723401
0.7372,-0.01587265
0.7374,-0.01765232
0.7376,-0.01938844
0.7378,-0.0200316
0.738,-0.01951717
0.7382,-0.02079953
0.7384,-0.02278097
0.7386,-0.02327638
0.7388,-0.02255379
0.739,-0.02212271
0.7392,-0.02214725
0.7394,-0.02097822
0.7396,-0.01967587
0.7398,-0.01917985
0.74,-0.01900811
0.7402,-0.0191499
0.7404,-0.01522059
0.7406,-0.01250703
0.7408,-0.01250251
0.741,-0.01188516
0.7412,-0.009577906
0.7414,-0.008370758
0.7416,-0.007124936
0.7418,-0.006693864
0.742,-0.005242296
0.7422,-0.004585536
0.7424,-0.003078406
0.7426,-0.001436255
0.7428,0.0006601373
0.743,0.002147502
0.7432,0.001013789
0.7434,0.001574304
0.7436,0.001582244
0.7438,0.003097171
0.744,0.004388864
0.7442,0.006395969
0.7444,0.007311759
0.7446,0.008026061
0.7448,0.009081515
0.745,0.01084719
0.7452,0.01236503
0.7454,0.01223236
0.7456,0.01357581
0.7458,0.01622345
0.746,0.01874531
0.7462,0.02009845
0.7464,0.02048693
0.7466,0.02020683
0.7468,0.01995428
0.747,0.02181943
0.7472,0.02323169
0.7474,0.02348565
0.7476,0.02223277
0.7478,0.02095893
0.748,0.02119958
0.7482,0.01981435
0.7484,0.01865104
0.7486,0.01869103
0.7488,0.0195398
0.749,0.01877161
0.7492,0.01842744
0.7494,0.01904233
0.7496,0.01899145
0.7498,0.0198403
0.75,0.01952326
0.7502,0.01770692
0.7504,0.01526491
0.7506,0.0128772
0.7508,0.01172181
0.751,0.01096997
0.7512,0.008923905
0.7514,0.008352988
0.7516,0.007455389
0.7518,0.007095608
0.752,0.007452905
0.7522,0.004597295
0.7524,0.0020208
0.7526,0.002545523
0.7528,0.001336599
0.753,-0.0006416725
0.7532,-0.002631401
0.7534,-0.00457585
0.7536,-0.005524963
0.7538,-0.005733651
0.754,-0.004651762
0.7542,-0.005708692
0.7544,-0.007432811
0.7546,-0.009597981
0.7548,-0.01074532
0.755,-0.01060727
0.7552,-0.01050157
0.7554,-0.0113416
0.7556,-0.01339693
0.7558,-0.01412106
0.756,-0.01614731
0.7562,-0.01679573
0.7564,-0.01894806
0.7566,-0.02015297
0.7568,-0.01911395
0.757,-0.02085899
0.7572,-0.02204028
0.7574,-0.02154856
0.7576,-0.02177704
0.7578,-0.02308248
0.758,-0.02325519
0.7582,-0.02446755
0.7584,-0.02552508
0.7586,-0.02573895
0.7588,-0.02368299
0.759,-0.02261679
0.7592,-0.0213283
0.7594,-0.01944122
0.7596,-0.02005376
0.7598,-0.02079643
0.76,-0.01959811
0.7602,-0.01891221
0.7604,-0.01748761
0.7606,-0.01576633
0.7608,-0.01512079
0.761,-0.01471061
0.7612,-0.01472841
0.7614,-0.01310928
0.7616,-0.01078461
0.7618,-0.009149309
0.762,-0.00848832
0.7622,-0.007550925
0.7624,-0.006273268
0.7626,-0.004014228
0.7628,-0.002608425
0.763,-0.002695199
0.7632,-0.001510917
0.7634,-0.0002772408
0.7636,0.001735366
0.7638,0.004523423
0.764,0.007128995
0.7642,0.009355812
0.7644,0.009179084
0.7646,0.01055889
0.7648,0.0121322
0.765,0.01396815
0.7652,0.01504649
0.7654,0.01607032
0.7656,0.01831256
0.7658,0.01880831
0.766,0.01945696
0.7662,0.01881219
0.7664,0.01953417
0.7666,0.02000058
0.7668,0.02000767
0.767,0.02029934
0.7672,0.02046953
0.7674,0.02151824
0.7676,0.02144027
0.7678,0.02140961
0.768,0.02147891
0.7682,0.02147134
0.7684,0.02166882
0.7686,0.02234339
0.7688,0.02112059
0.769,0.01923769
0.7692,0.01960981
0.7694,0.01851057
0.7696,0.01786111
0.7698,0.01819934
0.77,0.01870598
0.7702,0.01945643
0.7704,0.01837295
0.7706,0.01866469
0.7708,0.01814927
0.771,0.01765275
0.7712,0.01545808
0.7714,0.01421544
0.7716,0.01366742
0.7718,0.01043568
0.772,0.008416925
0.7722,0.008634401
0.7724,0.007168601
0.7726,0.005150347
0.7728,0.003661254
0.773,0.00277979
0.7732,0.001127766
0.7734,-0.001331553
0.7736,-0.002443876
0.7738,-0.004136855
0.774,-0.005871575
0.7742,-0.006518921
0.7744,-0.007869476
0.7746,-0.01049744
0.7748,-0.01341745
0.775,-0.01423539
0.7752,-0.01597128
0.7754,-0.01675157
0.7756,-0.01689803
0.7758,-0.0170538
0.776,-0.01590139
0.7762,-0.01479687
0.7764,-0.01437499
0.7766,-0.01508094
0.7768,-0.01545033
0.777,-0.01399713
0.7772,-0.0131269
0.7774,-0.01228328
0.7776,-0.01241625
0.7778,-0.01395108
0.778,-0.01558291
0.7782,-0.01680822
0.7784,-0.01956278
0.7786,-0.02012195
0.7788,-0.02134507
0.779,-0.02161554
0.7792,-0.02034012
0.7794,-0.01970446
0.7796,-0.01898835
0.7798,-0.01892328
0.78,-0.01784275
0.7802,-0.01626192
0.7804,-0.01522846
0.7806,-0.0121437
0.7808,-0.01070579
0.781,-0.008564366
0.7812,-0.007278143
0.7814,-0.009920104
0.7816,-0.01194266
0.7818,-0.009725668
0.782,-0.008595977
0.7822,-0.007777512
0.7824,-0.005432098
0.7826,-0.004336957
0.7828,-0.002428583
0.783,-0.00120983
0.7832,0.001493989
0.7834,0.003428455
0.7836,0.006018704
0.7838,0.007648546
0.784,0.008908953
0.7842,0.01162579
0.7844,0.01292614
0.7846,0.01400042
0.7848,0.01517717
0.785,0.0164294
0.7852,0.01788734
0.7854,0.01796268
0.7856,0.01796778
0.7858,0.02019226
0.786,0.02239857
0.7862,0.02329174
0.7864,0.02262859
0.7866,0.02172941
0.7868,0.02142035
0.787,0.02179142
0.7872,0.0218615
0.7874,0.02088687
0.7876,0.01962318
0.7878,0.01935812
0.788,0.01832606
0.7882,0.01831583
0.7884,0.01926857
0.7886,0.01915767
0.7888,0.01978363
0.789,0.01893868
0.7892,0.01659925
0.7894,0.01647209
0.7896,0.01495966
0.7898,0.01293149
0.79,0.01172256
0.7902,0.01156953
0.7904,0.009872965
0.7906,0.00855947
0.7908,0.008863078
0.791,0.009204197
0.7912,0.009196243
0.7914,0.007920195
0.7916,0.006925041
0.7918,0.005871374
0.792,0.004170013
0.7922,0.003213995
0.7924,0.00280259
0.7926,0.002833458
0.7928,0.001960596
0.793,0.0008888535
0.7932,-0.0005243152
0.7934,-0.003312425
0.7936,-0.005216102
0.7938,-0.005689604
0.794,-0.006839961
0.7942,-0.008714236
0.7944,-0.01024443
0.7946,-0.01132988
0.7948,-0.01209323
0.795,-0.01311884
0.7952,-0.0140932
0.7954,-0.01409429
0.7956,-0.01375528
0.7958,-0.01513539
0.796,-0.01566995
0.7962,-0.01640909
0.7964,-0.01820371
0.7966,-0.01871697
0.7968,-0.01869269
0.797,-0.01907275
0.7972,-0.0194593
0.7974,-0.02007665
0.7976,-0.02060217
0.7978,-0.02028648
0.798,-0.02057738
0.7982,-0.0222043
0.7984,-0.02250225
0.7986,-0.02135999
0.7988,-0.02237379
0.799,-0.024286
0.7992,-0.0230916
0.7994,-0.02131666
0.7996,-0.02172667
0.7998,-0.02161031
0.8,-0.01978348
0.8002,-0.01675465
0.8004,-0.01564055
0.8006,-0.01416207
0.8008,-0.01439445
0.801,-0.01282793
0.8012,-0.01003877
0.8014,-0.01142624
0.8016,-0.01048152
0.8018,-0.008035317
0.802,-0.007504101
0.8022,-0.006804319
0.8024,-0.004632501
0.8026,-0.002787464
0.8028,-0.000146113
0.803,0.00124246
0.8032,0.001122982
0.8034,0.001984582
0.8036,0.004462738
0.8038,0.006551912
0.804,0.007471771
0.8042,0.008412343
0.8044,0.009560712
0.8046,0.01072887
0.8048,0.01187007
0.805,0.01320111
0.8052,0.01337002
0.8054,0.01325612
0.8056,0.01473653
0.8058,0.01679541
0.806,0.01804103
0.8062,0.01880387
0.8064,0.01812523
0.8066,0.01914866
0.8068,0.0199949
0.807,0.02095113
0.8072,0.02157451
0.8074,0.0203489
0.8076,0.02042809
0.8078,0.02053131
0.808,0.01979337
0.8082,0.02040081
0.8084,0.02087181
0.8086,0.02019873
0.8088,0.01914423
0.809,0.01814152
0.8092,0.01787527
0.8094,0.01532987
0.8096,0.01104152
0.8098,0.005823751
0.81,0.002834341
0.8102,-0.0001455322
0.8104,-0.002651699
0.8106,-0.002258965
0.8108,-0.002197352
0.811,-0.002872818
0.8112,-0.004304104
0.8114,-0.003160371
0.8116,-0.00167054
0.8118,-0.0009333086
0.812,-0.0006035648
0.8122,0.002096582
0.8124,0.003731363
0.8126,0.002494736
0.8128,0.002958792
0.813,0.004021915
0.8132,0.00567584
0.8134,0.004762042
0.8136,0.00333643
0.8138,0.003291345
0.814,0.003932052
0.8142,0.003330661
0.8144,0.002312959
0.8146,0.002330388
0.8148,0.002035245
0.815,0.0002647367
0.8152,-0.002048003
0.8154,-0.003179953
0.8156,-0.004289109
0.8158,-0.006139003
0.816,-0.006932202
0.8162,-0.006707975
0.8164,-0.006356739
0.8166,-0.005557922
0.8168,-0.004672731
0.817,-0.004948168
0.8172,-0.005591865
0.8174,-0.006208849
0.8176,-0.007662972
0.8178,-0.008124195
0.818,-0.007207082
0.8182,-0.006430046
0.8184,-0.007222582
0.8186,-0.007803337
0.8188,-0.009840572
0.819,-0.01181424
0.8192,-0.01073625
0.8194,-0.01064102
0.8196,-0.01150483
0.8198,-0.01016865
0.82,-0.008119671
0.8202,-0.008422326
0.8204,-0.008302889
0.8206,-0.009842462
0.8208,-0.01276602
0.821,-0.01373863
0.8212,-0.0144284
0.8214,-0.01460707
0.8216,-0.01472344
0.8218,-0.01226797
0.822,-0.01216861
0.8222,-0.01119227
0.8224,-0.009068199
0.8226,-0.007830231
0.8228,-0.007712624
0.823,-0.007981047
0.8232,-0.006416972
0.8234,-0.004090253
0.8236,-0.00278859
0.8238,-0.0006375497
0.824,0.0005097868
0.8242,0.001448689
0.8244,0.002606333
0.8246,0.003042875
0.8248,0.005497823
0.825,0.00878474
0.8252,0.008376666
0.8254,0.009519668
0.8256,0.01028821
0.8258,0.01026892
0.826,0.01077789
0.8262,0.01099473
0.8264,0.01127421
0.8266,0.01283568
0.8268,0.01500419
0.827,0.0152699
0.8272,0.01533183
0.8274,0.01489392
0.8276,0.01453101
0.8278,0.01614119
0.828,0.01718431
0.8282,0.01902948
0.8284,0.01838701
0.8286,0.01798498
0.8288,0.0180678
0.829,0.01677571
0.8292,0.01629998
0.8294,0.01521461
0.8296,0.01515775
0.8298,0.01484375
0.83,0.01422711
0.8302,0.01227333
0.8304,0.0125873
0.8306,0.01162681
0.8308,0.01020918
0.831,0.01088422
0.8312,0.01158708
0.8314,0.01278561
0.8316,0.01366534
0.8318,0.01361833
0.832,0.0124185
0.8322,0.01281187
0.8324,0.0111893
0.8326,0.009216382
0.8328,0.008160543
0.833,0.005973327
0.8332,0.004166363
0.8334,0.002585422
0.8336,0.001352012
0.8338,-0.0004450225
0.834,-0.002405531
0.8342,-0.006944268
0.8344,-0.009338743
0.8346,-0.01218848
0.8348,-0.01440659
0.835,-0.01633307
0.8352,-0.01595791
0.8354,-0.01559136
0.8356,-0.01652134
0.8358,-0.01682118
0.836,-0.0167089
0.8362,-0.01680022
0.8364,-0.01693183
0.8366,-0.0192261
0.8368,-0.01898621
0.837,-0.01983109
0.8372,-0.02259191
0.8374,-0.02266343
0.8376,-0.02353449
0.8378,-0.02334789
0.838,-0.02196774
0.8382,-0.0210186
0.8384,-0.02097167
0.8386,-0.01955118
0.8388,-0.01804169
0.839,-0.01716674
0.8392,-0.01743842
0.8394,-0.01677552
0.8396,-0.01511838
0.8398,-0.01321597
0.84,-0.01177428
0.8402,-0.01188516
0.8404,-0.01067643
0.8406,-0.01027215
0.8408,-0.01016108
0.841,-0.009837638
0.8412,-0.008299773
0.8414,-0.009172501
0.8416,-0.01010602
0.8418,-0.009820865
0.842,-0.00863516
0.8422,-0.008318824
0.8424,-0.007484161
0.8426,-0.005633801
0.8428,-0.002856904
0.843,-0.0005325606
0.8432,0.0008683924
0.8434,0.002444556
0.8436,0.003322295
0.8438,0.004186542
0.844,0.005746039
0.8442,0.006644676
0.8444,0.007495232
0.8446,0.008873669
0.8448,0.009004829
0.845,0.009342514
0.8452,0.008684378
0.8454,0.00953601
0.8456,0.01149176
0.8458,0.01231375
0.846,0.01402544
0.8462,0.0141386
0.8464,0.01313067
0.8466,0.01273519
0.8468,0.01291689
0.847,0.01478073
0.8472,0.0169628
0.8474,0.01879414
0.8476,0.02031193
0.8478,0.02072871
0.848,0.02117351
0.8482,0.02242119
0.8484,0.02242239
0.8486,0.02094399
0.8488,0.01935043
0.849,0.01830054
0.8492,0.01749411
0.8494,0.01585927
0.8496,0.01486992
0.8498,0.01141908
0.85,0.01102456
0.8502,0.01183957
0.8504,0.01159384
0.8506,0.01040308
0.8508,0.00916786
0.851,0.006246021
0.8512,0.005648713
0.8514,0.005925965
0.8516,0.005074
0.8518,0.004988212
0.852,0.004153808
0.8522,0.004021215
0.8524,0.003491163
0.8526,0.002864101
0.8528,0.001917118
0.853,-0.0004765105
0.8532,-0.003693589
0.8534,-0.004140085
0.8536,-0.003871804
0.8538,-0.005275842
0.854,-0.009195873
0.8542,-0.01124815
0.8544,-0.01274806
0.8546,-0.01404708
0.8548,-0.01465061
0.855,-0.01484497
0.8552,-0.01572313
0.8554,-0.0163667
0.8556,-0.016149
0.8558,-0.01573174
0.856,-0.01603481
0.8562,-0.01683444
0.8564,-0.01764092
0.8566,-0.01616294
0.8568,-0.01639688
0.857,-0.01685322
0.8572,-0.01821235
0.8574,-0.01746868
0.8576,-0.01584968
0.8578,-0.01576191
0.858,-0.01689257
0.8582,-0.01790479
0.8584,-0.01764208
0.8586,-0.01694983
0.8588,-0.01729889
0.859,-0.01720953
0.8592,-0.01663019
0.8594,-0.01622814
0.8596,-0.01540877
0.8598,-0.01635689
0.86,-0.016937
0.8602,-0.01572687
0.8604,-0.01507313
0.8606,-0.01362038
0.8608,-0.01288969
0.861,-0.01141663
0.8612,-0.009769629
0.8614,-0.009096944
0.8616,-0.007904523
0.8618,-0.006233231
0.862,-0.003595754
0.8622,-0.001572804
0.8624,-0.0008658298
0.8626,0.001427013
0.8628,0.002416968
0.863,0.003021114
0.8632,0.005091766
0.8634,0.005406048
0.8636,0.0063661
0.8638,0.008605688
0.864,0.009523933
0.8642,0.009874118
0.8644,0.01187758
0.8646,0.01308945
0.8648,0.01363152
0.865,0.01532973
0.8652,0.01552708
0.8654,0.01496272
0.8656,0.01684532
0.8658,0.01882117
0.866,0.01986627
0.8662,0.01871279
0.8664,0.01866284
0.8666,0.01764309
0.8668,0.01861291
0.867,0.01807408
0.8672,0.01687831
0.8674,0.01784925
0.8676,0.01754981
0.8678,0.01813831
0.868,0.01813411
0.8682,0.01873183
0.8684,0.01875232
0.8686,0.01825987
0.8688,0.01933457
0.869,0.01810889
0.8692,0.0171914
0.8694,0.0157145
0.8696,0.0160768
0.8698,0.01633193
0.87,0.01523987
0.8702,0.01488721
0.8704,0.01425396
0.8706,0.01329752
0.8708,0.01159804
0.871,0.01255823
0.8712,0.01301132
0.8714,0.01075942
0.8716,0.008497625
0.8718,0.007387205
0.872,0.006220423
0.8722,0.006386347
0.8724,0.004587161
0.8726,0.002111429
0.8728,0.0005291809
0.873,-1.548786e-06
0.8732,-0.002242199
0.8734,-0.004024712
0.8736,-0.006016745
0.8738,-0.008576063
0.874,-0.01042475
0.8742,-0.01127879
0.8744,-0.01271984
0.8746,-0.01439686
0.8748,-0.01672915
0.875,-0.01701302
0.8752,-0.01907532
0.8754,-0.01937914
0.8756,-0.01813999
0.8758,-0.01870328
0.876,-0.01887007
0.8762,-0.02018256
0.8764,-0.02024326
0.8766,-0.02029287
0.8768,-0.02091716
0.877,-0.0194929
0.8772,-0.01817879
0.8774,-0.0200426
0.8776,-0.02164225
0.8778,-0.02180322
0.878,-0.02088139
0.8782,-0.02022808
0.8784,-0.02072379
0.8786,-0.0190119
0.8788,-0.01897251
0.879,-0.01807434
0.8792,-0.01685217
0.8794,-0.01686687
0.8796,-0.01683175
0.8798,-0.01487687
0.88,-0.01348853
0.8802,-0.01336982
0.8804,-0.01275768
0.8806,-0.01173455
0.8808,-0.0115261
0.881,-0.01126425
0.8812,-0.01065315
0.8814,-0.01095549
0.8816,-0.01020738
0.8818,-0.009797218
0.882,-0.007894734
0.8822,-0.006258775
0.8824,-0.003913577
0.8826,-0.003096444
0.8828,-0.002216906
0.883,-0.0005861894
0.8832,0.0008610729
0.8834,0.002391398
0.8836,0.003802386
0.8838,0.005389736
0.884,0.008037613
0.8842,0.01031956
0.8844,0.01049071
0.8846,0.01129343
0.8848,0.01207985
0.885,0.01217598
0.8852,0.01065869
0.8854,0.01211704
0.8856,0.01290802
0.8858,0.01480883
0.886,0.01710061
0.8862,0.01668871
0.8864,0.01636437
0.8866,0.01742358
0.8868,0.01798306
0.887,0.01848057
0.8872,0.0182002
0.8874,0.01739681
0.8876,0.01980925
0.8878,0.02130761
0.888,0.02112582
0.8882,0.020215
0.8884,0.01992332
0.8886,0.0195558
0.8888,0.01905794
0.889,0.01906994
0.8892,0.01905077
0.8894,0.01769638
0.8896,0.01678723
0.8898,0.01523432
0.89,0.01621965
0.8902,0.01637442
0.8904,0.01529748
0.8906,0.01421272
0.8908,0.01243687
0.891,0.01165621
0.8912,0.009755557
0.8914,0.008932216
0.8916,0.008778184
0.8918,0.008629705
0.892,0.007237448
0.8922,0.005328172
0.8924,0.003589464
0.8926,0.002826271
0.8928,0.001912172
0.893,0.000631996
0.8932,-0.001062877
0.8934,-0.003495422
0.8936,-0.005315574
0.8938,-0.005663553
0.894,-0.005279066
0.8942,-0.007235659
0.8944,-0.00653986
0.8946,-0.007751074
0.8948,-0.00793513
0.895,-0.0102027
0.8952,-0.01154781
0.8954,-0.01202085
0.8956,-0.01158393
0.8958,-0.0123663
0.896,-0.01300841
0.8962,-0.01433348
0.8964,-0.01575319
0.8966,-0.01536093
0.8968,-0.01446148
0.897,-0.01495336
0.8972,-0.01630091
0.8974,-0.01635041
0.8976,-0.01534808
0.8978,-0.01699925
0.898,-0.01870484
0.8982,-0.01931765
0.8984,-0.01963757
0.8986,-0.02059083
0.8988,-0.0211775
0.899,-0.0205429
0.8992,-0.01996767
0.8994,-0.02063906
0.8996,-0.02105961
0.8998,-0.0196991
0.9,-0.0166643
0.9002,-0.01631389
0.9004,-0.01733529
0.9006,-0.01793152
0.9008,-0.01691345
0.901,-0.01688989
0.9012,-0.01546349
0.9014,-0.01438675
0.9016,-0.01573524
0.9018,-0.01395427
0.902,-0.01210838
0.9022,-0.009191934
0.9024,-0.006583757
0.9026,-0.005517834
0.9028,-0.003634268
0.903,-0.003005484
0.9032,-0.002510658
0.9034,0.000350336
0.9036,0.003140881
0.9038,0.004539336
0.904,0.004457141
0.9042,0.00681195
0.9044,0.009430665
0.9046,0.008779289
0.9048,0.008767406
0.905,0.01065468
0.9052,0.01260293
0.9054,0.01254284
0.9056,0.01244837
0.9058,0.01438101
0.906,0.0162228
0.9062,0.0165083
0.9064,0.01806871
0.9066,0.01865442
0.9068,0.020068
0.907,0.02130289
0.9072,0.01957599
0.9074,0.02036216
0.9076,0.02060933
0.9078,0.02010484
0.908,0.01974858
0.9082,0.01730812
0.9084,0.01375303
0.9086,0.01001394
0.9088,0.006237843
0.909,0.002241114
0.9092,-6.574064e-05
0.9094,-0.0002279485
0.9096,0.0004494003
0.9098,0.00173566
0.91,0.001611166
0.9102,0.002475816
0.9104,0.004264216
0.9106,0.004260696
0.9108,0.004463091
0.911,0.005927767
0.9112,0.006489562
0.9114,0.009102033
0.9116,0.01132975
0.9118,0.0130756
0.912,0.01324866
0.9122,0.01357073
0.9124,0.01366893
0.9126,0.01443415
0.9128,0.01485788
0.913,0.01560178
0.9132,0.01398924
0.9134,0.01172983
0.9136,0.009281642
0.9138,0.006443695
0.914,0.003539362
0.9142,0.001945758
0.9144,0.001392829
0.9146,0.001564955
0.9148,0.002048521
0.915,0.001814622
0.9152,0.002332408
0.9154,0.00337695
0.9156,0.003017914
0.9158,0.0007320062
0.916,-0.002087651
0.9162,-0.003994238
0.9164,-0.005331443
0.9166,-0.007560006
0.9168,-0.01033022
0.917,-0.01272589
0.9172,-0.01287761
0.9174,-0.01283216
0.9176,-0.0148462
0.9178,-0.01643682
0.918,-0.01968559
0.9182,-0.02085161
0.9184,-0.0198694
0.9186,-0.01792957
0.9188,-0.0139446
0.919,-0.0103633
0.9192,-0.008697763
0.9194,-0.008566943
0.9196,-0.01003936
0.9198,-0.01103847
0.92,-0.008602096
0.9202,-0.008503725
0.9204,-0.009902898
0.9206,-0.01093244
0.9208,-0.01278831
0.921,-0.01386542
0.9212,-0.01186382
0.9214,-0.01045076
0.9216,-0.01034077
0.9218,-0.01017131
0.922,-0.008958876
0.9222,-0.007786298
0.9224,-0.00692788
0.9226,-0.006409388
0.9228,-0.005782958
0.923,-0.004971891
0.9232,-0.00540395
0.9234,-0.004259098
0.9236,-0.002770663
0.9238,-0.001479085
0.924,0.0007109578
0.9242,0.002405035
0.9244,0.003338086
0.9246,0.004076596
0.9248,0.005946275
0.925,0.008322029
0.9252,0.00906476
0.9254,0.009651254
0.9256,0.009561773
0.9258,0.009600439
0.926,0.01073644
0.9262,0.01209231
0.9264,0.01270477
0.9266,0.01352236
0.9268,0.01350806
0.927,0.01329286
0.9272,0.01346234
0.9274,0.01473516
0.9276,0.01611841
0.9278,0.01734264
0.928,0.01873934
0.9282,0.01855373
0.9284,0.01784518
0.9286,0.0191777
0.9288,0.01870964
0.929,0.01736736
0.9292,0.0167692
0.9294,0.01662273
0.9296,0.01710794
0.9298,0.01859598
0.93,0.01785524
0.9302,0.01696284
0.9304,0.01627127
0.9306,0.01664917
0.9308,0.01711261
0.931,0.01544924
0.9312,0.0129954
0.9314,0.01109898
0.9316,0.01148094
0.9318,0.01171499
0.932,0.01061445
0.9322,0.01038553
0.9324,0.01075793
0.9326,0.01231592
0.9328,0.01322493
0.933,0.01321738
0.9332,0.009788026
0.9334,0.004883122
0.9336,0.0005690557
0.9338,-0.004631429
0.934,-0.006734659
0.9342,-0.008764525
0.9344,-0.008499961
0.9346,-0.009200975
0.9348,-0.009340322
0.935,-0.01045685
0.9352,-0.012806
0.9354,-0.01466444
0.9356,-0.01476159
0.9358,-0.01664074
0.936,-0.01939712
0.9362,-0.02070332
0.9364,-0.02295562
0.9366,-0.02286742
0.9368,-0.02152477
0.937,-0.02109084
0.9372,-0.02050892
0.9374,-0.01953657
0.9376,-0.01936591
0.9378,-0.01764236
0.938,-0.01813092
0.9382,-0.01810041
0.9384,-0.01769092
0.9386,-0.01758465
0.9388,-0.01958587
0.939,-0.01970855
0.9392,-0.01807123
0.9394,-0.0186212
0.9396,-0.01927471
0.9398,-0.01937263
0.94,-0.01918878
0.9402,-0.01799459
0.9404,-0.01590299
0.9406,-0.01561567
0.9408,-0.01660616
0.941,-0.01580444
0.9412,-0.01643051
0.9414,-0.01649749
0.9416,-0.01561907
0.9418,-0.01405313
0.942,-0.01122207
0.9422,-0.01007542
0.9424,-0.009112638
0.9426,-0.01003442
0.9428,-0.01053287
0.943,-0.008395307
0.9432,-0.006780634
0.9434,-0.005177234
0.9436,-0.003183245
0.9438,-0.0007944861
0.944,0.001943769
0.9442,0.003215295
0.9444,0.005864949
0.9446,0.008583957
0.9448,0.01076827
0.945,0.01224544
0.9452,0.01160952
0.9454,0.01221496
0.9456,0.0124039
0.9458,0.01381524
0.946,0.0136926
0.9462,0.01248019
0.9464,0.0132467
0.9466,0.01378522
0.9468,0.0154404
0.947,0.01613691
0.9472,0.01823883
0.9474,0.02029974
0.9476,0.01988033
0.9478,0.0182884
0.948,0.01954039
0.9482,0.02062609
0.9484,0.02056959
0.9486,0.0215214
0.9488,0.02183033
0.949,0.02243886
0.9492,0.02129593
0.9494,0.02083055
0.9496,0.02009257
0.9498,0.01871466
0.95,0.01746999
0.9502,0.01515815
0.9504,0.01524757
0.9506,0.01587217
0.9508,0.01593091
0.951,0.0146771
0.9512,0.01383591
0.9514,0.01305204
0.9516,0.01129022
0.9518,0.01054073
0.952,0.008901479
0.9522,0.008323407
0.9524,0.008095811
0.9526,0.005994341
0.9528,0.004495576
0.953,0.003417163
0.9532,0.001178987
0.9534,-0.001021409
0.9536,-0.001357075
0.9538,-0.002672758
0.954,-0.005315584
0.9542,-0.006777957
0.9544,-0.008208513
0.9546,-0.008492153
0.9548,-0.008170442
0.955,-0.009723959
0.9552,-0.0112686
0.9554,-0.01317512
0.9556,-0.01318991
0.9558,-0.01558195
0.956,-0.01669938
0.9562,-0.01635599
0.9564,-0.01798076
0.9566,-0.01823723
0.9568,-0.01860012
0.957,-0.01987066
0.9572,-0.02030383
0.9574,-0.02044412
0.9576,-0.0196956
0.9578,-0.01980484
0.958,-0.02031293
0.9582,-0.02021717
0.9584,-0.02038184
0.9586,-0.01906774
0.9588,-0.01930488
0.959,-0.0189255
0.9592,-0.0182757
0.9594,-0.01798437
0.9596,-0.01626433
0.9598,-0.01732394
0.96,-0.01768795
0.9602,-0.0171492
0.9604,-0.01539266
0.9606,-0.01389369
0.9608,-0.0137482
0.961,-0.01379825
0.9612,-0.01151174
0.9614,-0.0108821
0.9616,-0.0091601
0.9618,-0.007329935
0.962,-0.005082086
0.9622,-0.003529583
0.9624,-0.0009974891
0.9626,-0.001340825
0.9628,-0.0007097213
0.963,-0.0002411613
0.9632,0.002208668
0.9634,0.005544205
0.9636,0.005142274
0.9638,0.00835075
0.964,0.009445913
0.9642,0.01114726
0.9644,0.0153055
0.9646,0.01742872
0.9648,0.01647855
0.965,0.01678581
0.9652,0.01769327
0.9654,0.01786341
0.9656,0.01905162
0.9658,0.01916069
0.966,0.01894487
0.9662,0.01914259
0.9664,0.01941113
0.9666,0.01886269
0.9668,0.01814097
0.967,0.01704504
0.9672,0.01710677
0.9674,0.01668325
0.9676,0.01744042
0.9678,0.01717893
0.968,0.01563048
0.9682,0.01520267
0.9684,0.01381372
0.9686,0.01382355
0.9688,0.01468493
0.969,0.01534227
0.9692,0.01414291
0.9694,0.01170786
0.9696,0.01171609
0.9698,0.009699185
0.97,0.009039938
0.9702,0.008992746
0.9704,0.008292324
0.9706,0.007498657
0.9708,0.006698713
0.971,0.005646377
0.9712,0.00349602
0.9714,0.004281082
0.9716,0.0050623
0.9718,0.003947645
0.972,0.00448401
0.9722,0.004144578
0.9724,0.00252104
0.9726,0.001154519
0.9728,0.001122044
0.973,0.0008605105
0.9732,-0.0007901718
0.9734,-0.001392173
0.9736,-0.002337265
0.9738,-0.00498438
0.974,-0.006296185
0.9742,-0.006584406
0.9744,-0.007494735
0.9746,-0.008809878
0.9748,-0.009875672
0.975,-0.01086379
0.9752,-0.01117087
0.9754,-0.01164555
0.9756,-0.01380152
0.9758,-0.01440074
0.976,-0.01421566
0.9762,-0.0147986
0.9764,-0.01631571
0.9766,-0.01754191
0.9768,-0.01714096
0.977,-0.0187648
0.9772,-0.02082335
0.9774,-0.0221355
0.9776,-0.02150719
0.9778,-0.0208327
0.978,-0.02136931
0.9782,-0.02082895
0.9784,-0.0197004
0.9786,-0.01833985
0.9788,-0.01726829
0.979,-0.01725289
0.9792,-0.01696854
0.9794,-0.01898871
0.9796,-0.0199632
0.9798,-0.01925509
0.98,-0.01696764
0.9802,-0.01653443
0.9804,-0.01567801
0.9806,-0.01384958
0.9808,-0.01269519
0.981,-0.01233097
0.9812,-0.01291199
0.9814,-0.0129114
0.9816,-0.0104124
0.9818,-0.007030529
0.982,-0.005558121
0.9822,-0.003739845
0.9824,-0.001079241
0.9826,2.074797e-05
0.9828,0.0005377862
0.983,0.002982287
0.9832,0.003923577
0.9834,0.005968238
0.9836,0.006409521
0.9838,0.006923265
0.984,0.008108431
0.9842,0.007351016
0.9844,0.008731707
0.9846,0.01081701
0.9848,0.0118747
0.985,0.01228926
0.9852,0.01243966
0.9854,0.01364434
0.9856,0.01486863
0.9858,0.01371009
0.986,0.0128758
0.9862,0.01355661
0.9864,0.01433633
0.9866,0.01490702
0.9868,0.01495704
0.987,0.01435177
0.9872,0.0168037
0.9874,0.01788557
0.9876,0.01873589
0.9878,0.01985103
0.988,0.02089088
0.9882,0.02129562
0.9884,0.02064887
0.9886,0.01869075
0.9888,0.01814836
0.989,0.01825454
0.9892,0.01713719
0.9894,0.01830146
0.9896,0.01887882
0.9898,0.01695993
0.99,0.0135848
0.9902,0.01238954
0.9904,0.01163923
0.9906,0.01019431
0.9908,0.008957496
0.991,0.008269525
0.9912,0.008089506
0.9914,0.008957895
0.9916,0.008388594
0.9918,0.00708303
0.992,0.007043549
0.9922,0.00612005
0.9924,0.004438452
0.9926,0.003369917
0.9928,0.001222248
0.993,-0.0004301881
0.9932,-0.000773888
0.9934,-0.001436784
0.9936,-0.002423732
0.9938,-0.003851967
0.994,-0.005291009
0.9942,-0.006762277
0.9944,-0.006636243
0.9946,-0.008364192
0.9948,-0.01017716
0.995,-0.01101205
0.9952,-0.01208575
0.9954,-0.01410134
0.9956,-0.01661964
0.9958,-0.0185853
0.996,-0.02073988
0.9962,-0.02138737
0.9964,-0.02166378
0.9966,-0.02094901
0.9968,-0.01960127
0.997,-0.02068912
0.9972,-0.02208881
0.9974,-0.0228009
0.9976,-0.02106361
0.9978,-0.01916563
0.998,-0.01939063
0.9982,-0.02031877
0.9984,-0.02038887
0.9986,-0.01964488
0.9988,-0.018721
0.999,-0.01600841
0.9992,-0.01320913
0.9994,-0.01151432
0.9996,-0.01015295
0.9998,-0.009133458
1.0,-0.008202976
1.0002,-0.007179445
1.0004,-0.007910919
1.0006,-0.007611275
1.0008,-0.008180909
1.001,-0.008249211
1.0012,-0.008532722
1.0014,-0.009115812
1.0016,-0.009045213
1.0018,-0.00737576
1.002,-0.004956534
1.0022,-0.004263124
1.0024,-0.003379359
1.0026,-0.00238078
1.0028,-0.002268778
1.003,-0.002015238
1.0032,-0.001611316
1.0034,-0.0004435575
1.0036,0.0001355124
1.0038,0.0008438677
1.004,0.004108956
1.0042,0.004749407
1.0044,0.005145293
1.0046,0.006750614
1.0048,0.006879843
1.005,0.008041942
1.0052,0.01091642
1.0054,0.01210764
1.0056,0.01256771
1.0058,0.0142786
1.006,0.0163079
1.0062,0.01640844
1.0064,0.01633041
1.0066,0.01614459
1.0068,0.01702366
1.007,0.01640719
1.0072,0.01675509
1.0074,0.01704246
1.0076,0.01765767
1.0078,0.01735125
1.008,0.01724869
1.0082,0.0178631
1.0084,0.0183476
1.0086,0.0183722
1.0088,0.01947112
1.009,0.02039789
1.0092,0.02051007
1.0094,0.01978266
1.0096,0.02097928
1.0098,0.02106396
1.01,0.02031667
1.0102,0.01905422
1.0104,0.01923026
1.0106,0.0200902
1.0108,0.01761862
1.011,0.01691744
1.0112,0.01630837
1.0114,0.01543596
1.0116,0.01648678
1.0118,0.01567878
1.012,0.0137264
1.0122,0.01068236
1.0124,0.007769342
1.0126,0.006766128
1.0128,0.004890401
1.013,0.002666628
1.0132,1.587319e-05
1.0134,-0.001638625
1.0136,-0.004052046
1.0138,-0.00534282
1.014,-0.006130483
1.0142,-0.006593529
1.0144,-0.008941837
1.0146,-0.01170263
1.0148,-0.01202979
1.015,-0.01345513
1.0152,-0.01408824
1.0154,-0.01438515
1.0156,-0.01571663
1.0158,-0.01888703
1.016,-0.01979504
1.0162,-0.02056887
1.0164,-0.02031101
1.0166,-0.02183989
1.0168,-0.02260975
1.017,-0.02240963
1.0172,-0.02364679
1.0174,-0.02315369
1.0176,-0.0218437
1.0178,-0.02164425
1.018,-0.02274721
1.0182,-0.02232044
1.0184,-0.02254953
1.0186,-0.02349745
1.0188,-0.02466407
1.019,-0.02458766
1.0192,-0.02333194
1.0194,-0.02146749
1.0196,-0.02150862
1.0198,-0.02091727
1.02,-0.02112258
1.0202,-0.01917013
1.0204,-0.01659817
1.0206,-0.01635544
1.0208,-0.01531413
1.021,-0.01394072
1.0212,-0.01361514
1.0214,-0.01323941
1.0216,-0.01043024
1.0218,-0.008555425
1.022,-0.006938952
1.0222,-0.00490479
1.0224,-0.004328081
1.0226,-0.002297457
1.0228,-0.0001922928
1.023,0.001078736
1.0232,0.001582319
1.0234,0.0009910086
1.0236,0.001348502
1.0238,0.002160233
1.024,0.0006419265
1.0242,-0.002980931
1.0244,-0.006226145
1.0246,-0.009427149
1.0248,-0.009386956
1.025,-0.00827343
1.0252,-0.008737682
1.0254,-0.005081055
1.0256,-0.0005081128
1.0258,0.003391497
1.026,0.006329734
1.0262,0.01112136
1.0264,0.01619653
1.0266,0.0196618
1.0268,0.0221342
1.027,0.02382102
1.0272,0.02488968
1.0274,0.02592969
1.0276,0.02730847
1.0278,0.02950839
1.028,0.03051939
1.0282,0.03139399
1.0284,0.0332455
1.0286,0.0347763
1.0288,0.035965
1.029,0.03640933
1.0292,0.03672558
1.0294,0.03851848
1.0296,0.03839117
1.0298,0.03710922
1.03,0.0357723
1.0302,0.03434557
1.0304,0.03182683
1.0306,0.03186754
1.0308,0.03060254
1.031,0.03066143
1.0312,0.03040143
1.0314,0.02897835
1.0316,0.02812374
1.0318,0.02655815
1.032,0.02293996
1.0322,0.02037474
1.0324,0.01553232
1.0326,0.01305921
1.0328,0.011653
1.033,0.008777749
1.0332,0.003788697
1.0334,-0.002373929
1.0336,-0.006697826
1.0338,-0.01105927
1.034,-0.01419966
1.0342,-0.01576493
1.0344,-0.01654224
1.0346,-0.02007147
1.0348,-0.02422388
1.035,-0.02582374
1.0352,-0.0258472
1.0354,-0.02587625
1.0356,-0.02682935
1.0358,-0.02611633
1.036,-0.02527074
1.0362,-0.02565907
1.0364,-0.0263561
1.0366,-0.0265971
1.0368,-0.02622278
1.037,-0.02449838
1.0372,-0.02417431
1.0374,-0.02521677
1.0376,-0.02509227
1.0378,-0.02575682
1.038,-0.02671526
1.0382,-0.02720804
1.0384,-0.0265493
1.0386,-0.02388047
1.0388,-0.02409367
1.039,-0.02461143
1.0392,-0.02410163
1.0394,-0.023715
1.0396,-0.02154674
1.0398,-0.02005881
1.04,-0.01826912
1.0402,-0.01549104
1.0404,-0.01359892
1.0406,-0.01404743
1.0408,-0.01367132
1.041,-0.01296253
1.0412,-0.0129691
1.0414,-0.01196598
1.0416,-0.00921326
1.0418,-0.007056744
1.042,-0.004902128
1.0422,-0.003006932
1.0424,-0.002370641
1.0426,1.084989e-05
1.0428,0.001717846
1.043,0.00146366
1.0432,0.002000265
1.0434,0.004389118
1.0436,0.006254784
1.0438,0.007512546
1.044,0.008400033
1.0442,0.01108615
1.0444,0.01305611
1.0446,0.01450487
1.0448,0.01434611
1.045,0.01445036
1.0452,0.01495933
1.0454,0.01564856
1.0456,0.01627788
1.0458,0.0154635
1.046,0.01516186
1.0462,0.01668443
1.0464,0.01829093
1.0466,0.0187053
1.0468,0.01883633
1.047,0.01943623
1.0472,0.01935762
1.0474,0.01867573
1.0476,0.01963298
1.0478,0.02119363
1.048,0.02191899
1.0482,0.02267964
1.0484,0.0240236
1.0486,0.02327598
1.0488,0.02363506
1.049,0.0233186
1.0492,0.02128963
1.0494,0.02143302
1.0496,0.02152421
1.0498,0.02039603
1.05,0.02142717
1.0502,0.02066218
1.0504,0.01814097
1.0506,0.01598528
1.0508,0.01288562
1.051,0.01183078
1.0512,0.01127167
1.0514,0.009535774
1.0516,0.009458911
1.0518,0.008284105
1.052,0.005840971
1.0522,0.005382207
1.0524,0.003438595
1.0526,0.002506371
1.0528,0.001727574
1.053,-0.0009589011
1.0532,-0.0008244101
1.0534,-0.0009646461
1.0536,-0.003422817
1.0538,-0.006238593
1.054,-0.006665529
1.0542,-0.006375228
1.0544,-0.006277945
1.0546,-0.007742685
1.0548,-0.009445776
1.055,-0.009142978
1.0552,-0.01097841
1.0554,-0.01276356
1.0556,-0.01343602
1.0558,-0.01419681
1.056,-0.01514256
1.0562,-0.01508927
1.0564,-0.01805419
1.0566,-0.0185977
1.0568,-0.01945614
1.057,-0.01966661
1.0572,-0.01983828
1.0574,-0.02053532
1.0576,-0.01949653
1.0578,-0.01787028
1.058,-0.01772789
1.0582,-0.01902063
1.0584,-0.01877674
1.0586,-0.01867544
1.0588,-0.02054648
1.059,-0.01977708
1.0592,-0.01996646
1.0594,-0.01998462
1.0596,-0.02208162
1.0598,-0.02245718
1.06,-0.02079578
1.0602,-0.02034341
1.0604,-0.02020741
1.0606,-0.01938745
1.0608,-0.01816971
1.061,-0.01801395
1.0612,-0.01668978
1.0614,-0.01599905
1.0616,-0.01251597
1.0618,-0.008664683
1.062,-0.00870908
1.0622,-0.008382982
1.0624,-0.00645602
1.0626,-0.005402208
1.0628,-0.004668354
1.063,-0.002426212
1.0632,0.0002409986
1.0634,0.001073608
1.0636,0.001512083
1.0638,0.003681739
1.064,0.004725839
1.0642,0.005770904
1.0644,0.005533478
1.0646,0.007663807
1.0648,0.01028448
1.065,0.01210596
1.0652,0.01358822
1.0654,0.01358188
1.0656,0.01583142
1.0658,0.01560588
1.066,0.01589436
1.0662,0.01573093
1.0664,0.01678754
1.0666,0.01715351
1.0668,0.01949878
1.067,0.02090443
1.0672,0.02078278
1.0674,0.01995835
1.0676,0.02022477
1.0678,0.02060373
1.068,0.02001413
1.0682,0.02129388
1.0684,0.02001154
1.0686,0.01845377
1.0688,0.0195419
1.069,0.0216005
1.0692,0.02077919
1.0694,0.01897709
1.0696,0.01760051
1.0698,0.01730936
1.07,0.01683297
1.0702,0.01510564
1.0704,0.01286793
1.0706,0.01184433
1.0708,0.01028784
1.071,0.0110922
1.0712,0.01102027
1.0714,0.00989278
1.0716,0.008341164
1.0718,0.006896947
1.072,0.006773547
1.0722,0.005598169
1.0724,0.004921223
1.0726,0.003168972
1.0728,0.001395778
1.073,0.0005432472
1.0732,-0.001372691
1.0734,-0.002686074
1.0736,-0.003841086
1.0738,-0.00489912
1.074,-0.005870493
1.0742,-0.007425694
1.0744,-0.008645982
1.0746,-0.01012748
1.0748,-0.01086562
1.075,-0.01275231
1.0752,-0.01311323
1.0754,-0.01372924
1.0756,-0.01462774
1.0758,-0.01628992
1.076,-0.01790376
1.0762,-0.01896688
1.0764,-0.02046764
1.0766,-0.01908157
1.0768,-0.01820306
1.077,-0.0182683
1.0772,-0.01902996
1.0774,-0.01901533
1.0776,-0.01788895
1.0778,-0.01877262
1.078,-0.01903948
1.0782,-0.01845791
1.0784,-0.01855581
1.0786,-0.01716772
1.0788,-0.01658389
1.079,-0.01705421
1.0792,-0.01670049
1.0794,-0.01585891
1.0796,-0.01588076
1.0798,-0.01717115
1.08,-0.01624572
1.0802,-0.01340113
1.0804,-0.01223458
1.0806,-0.01161337
1.0808,-0.01105091
1.081,-0.01049522
1.0812,-0.009529248
1.0814,-0.008144741
1.0816,-0.006902029
1.0818,-0.005415612
1.082,-0.004241084
1.0822,-0.003506575
1.0824,-0.002308141
1.0826,-0.001734814
1.0828,-3.675233e-05
1.083,0.000901971
1.0832,0.002339054
1.0834,0.003556031
1.0836,0.004608168
1.0838,0.006734211
1.084,0.007847621
1.0842,0.009922875
1.0844,0.01077189
1.0846,0.01172534
1.0848,0.01185599
1.085,0.01240625
1.0852,0.01381152
1.0854,0.01488402
1.0856,0.01600548
1.0858,0.01538662
1.086,0.01602358
1.0862,0.01722443
1.0864,0.01728583
1.0866,0.01855485
1.0868,0.01871151
1.087,0.01724735
1.0872,0.01749829
1.0874,0.01637452
1.0876,0.0171639
1.0878,0.0169167
1.088,0.01506402
1.0882,0.01482351
1.0884,0.01458659
1.0886,0.01434732
1.0888,0.01470511
1.089,0.01509157
1.0892,0.01529611
1.0894,0.01431931
1.0896,0.01413011
1.0898,0.01350532
1.09,0.01253237
1.0902,0.01107168
1.0904,0.00984335
1.0906,0.01033597
1.0908,0.01030454
1.091,0.008843555
1.0912,0.008333104
1.0914,0.008932007
1.0916,0.007100225
1.0918,0.007119026
1.092,0.006092027
1.0922,0.001893516
1.0924,-0.000177727
1.0926,-9.499314e-05
1.0928,-0.002116498
1.093,-0.003369238
1.0932,-0.00491825
1.0934,-0.006231608
1.0936,-0.007396152
1.0938,-0.008719199
1.094,-0.009973304
1.0942,-0.008896885
1.0944,-0.008548443
1.0946,-0.008818779
1.0948,-0.01179204
1.095,-0.0132396
1.0952,-0.01221034
1.0954,-0.01197231
1.0956,-0.01331195
1.0958,-0.01414941
1.096,-0.01447001
1.0962,-0.01605583
1.0964,-0.01543
1.0966,-0.0144795
1.0968,-0.01388566
1.097,-0.01404898
1.0972,-0.01412969
1.0974,-0.01338539
1.0976,-0.01254186
1.0978,-0.0141667
1.098,-0.01575717
1.0982,-0.016426
1.0984,-0.01772485
1.0986,-0.01879326
1.0988,-0.0204454
1.099,-0.02139445
1.0992,-0.02079457
1.0994,-0.01814223
1.0996,-0.0171291
1.0998,-0.01444406
1.1,-0.01321584
1.1002,-0.01297971
1.1004,-0.01156352
1.1006,-0.01151917
1.1008,-0.01127989
1.101,-0.009842447
1.1012,-0.009643024
1.1014,-0.009048979
1.1016,-0.006806938
1.1018,-0.007007096
1.102,-0.00838558
1.1022,-0.008435
1.1024,-0.007138766
1.1026,-0.003761491
1.1028,-0.00145083
1.103,-0.002183736
1.1032,-0.001737015
1.1034,0.0004861965
1.1036,0.001580425
1.1038,0.001634044
1.104,0.002140534
1.1042,0.003842076
1.1044,0.006681201
1.1046,0.00777413
1.1048,0.009029785
1.105,0.01032654
1.1052,0.009757724
1.1054,0.01023983
1.1056,0.01083571
1.1058,0.01200395
1.106,0.01261554
1.1062,0.01339798
1.1064,0.01328652
1.1066,0.01293001
1.1068,0.01199993
1.107,0.01250266
1.1072,0.01282903
1.1074,0.01233893
1.1076,0.01339247
1.1078,0.01391952
1.108,0.01516678
1.1082,0.01719754
1.1084,0.01804233
1.1086,0.01704893
1.1088,0.01649205
1.109,0.01671702
1.1092,0.01728862
1.1094,0.01653981
1.1096,0.01663832
1.1098,0.01758852
1.11,0.01729708
1.1102,0.01626038
1.1104,0.01543255
1.1106,0.01495896
1.1108,0.01395179
1.111,0.01330634
1.1112,0.01216009
1.1114,0.01150835
1.1116,0.01138595
1.1118,0.01168546
1.112,0.01210882
1.1122,0.01179728
1.1124,0.01238107
1.1126,0.01119262
1.1128,0.008426074
1.113,0.006628828
1.1132,0.005520194
1.1134,0.002457412
1.1136,0.001266009
1.1138,0.0006217968
1.114,-0.000381489
1.1142,0.0001793862
1.1144,-0.002422738
1.1146,-0.004798648
1.1148,-0.008730234
1.115,-0.012412
1.1152,-0.01398819
1.1154,-0.01501804
1.1156,-0.01779003
1.1158,-0.01880256
1.116,-0.01949852
1.1162,-0.01746729
1.1164,-0.01705353
1.1166,-0.01760515
1.1168,-0.01584288
1.117,-0.0159952
1.1172,-0.01617767
1.1174,-0.01646115
1.1176,-0.0175605
1.1178,-0.01930216
1.118,-0.02204813
1.1182,-0.0231112
1.1184,-0.02326502
1.1186,-0.02469256
1.1188,-0.02509425
1.119,-0.02257981
1.1192,-0.02081753
1.1194,-0.01970979
1.1196,-0.01808881
1.1198,-0.01609701
1.12,-0.01395742
1.1202,-0.01246501
1.1204,-0.01109121
1.1206,-0.009760465
1.1208,-0.008171081
1.121,-0.005678368
1.1212,-0.0040641
1.1214,-0.003844106
1.1216,-0.003793141
1.1218,-0.003456476
1.122,-0.003948009
1.1222,-0.003546247
1.1224,-0.001159356
1.1226,-0.001135866
1.1228,-0.001513456
1.123,-0.0005378403
1.1232,0.000882468
1.1234,0.002700947
1.1236,0.002983582
1.1238,0.004512621
1.124,0.006134275
1.1242,0.009707113
1.1244,0.01195878
1.1246,0.01377907
1.1248,0.01497046
1.125,0.01543113
1.1252,0.01464742
1.1254,0.01422252
1.1256,0.0143974
1.1258,0.01483007
1.126,0.01602813
1.1262,0.01554939
1.1264,0.01571198
1.1266,0.01558077
1.1268,0.01576958
1.127,0.01656487
1.1272,0.01824269
1.1274,0.01880505
1.1276,0.0176742
1.1278,0.01844473
1.128,0.01912832
1.1282,0.01990696
1.1284,0.02044096
1.1286,0.01993533
1.1288,0.01931971
1.129,0.01879388
1.1292,0.01835303
1.1294,0.01806867
1.1296,0.01831792
1.1298,0.019267
1.13,0.01758329
1.1302,0.01746734
1.1304,0.01631885
1.1306,0.014726
1.1308,0.01315041
1.131,0.01211012
1.1312,0.01237416
1.1314,0.01219938
1.1316,0.01081473
1.1318,0.01015415
1.132,0.008817023
1.1322,0.006954938
1.1324,0.005311491
1.1326,0.003982279
1.1328,0.001575547
1.133,-0.000565997
1.1332,-0.003061666
1.1334,-0.005057685
1.1336,-0.005547863
1.1338,-0.006311944
1.134,-0.007053645
1.1342,-0.008788721
1.1344,-0.01019414
1.1346,-0.01254842
1.1348,-0.01389357
1.135,-0.01371522
1.1352,-0.01264774
1.1354,-0.0137425
1.1356,-0.01504849
1.1358,-0.0156021
1.136,-0.01577445
1.1362,-0.01653089
1.1364,-0.01765278
1.1366,-0.01831735
1.1368,-0.019501
1.137,-0.01987838
1.1372,-0.01911001
1.1374,-0.01911356
1.1376,-0.01909739
1.1378,-0.01838174
1.138,-0.020153
1.1382,-0.02175515
1.1384,-0.02059675
1.1386,-0.01851846
1.1388,-0.01909373
1.139,-0.01882115
1.1392,-0.01859631
1.1394,-0.01803928
1.1396,-0.01722558
1.1398,-0.01670446
1.14,-0.01515455
1.1402,-0.01414028
1.1404,-0.01303948
1.1406,-0.01202518
1.1408,-0.01226098
1.141,-0.01183931
1.1412,-0.01081142
1.1414,-0.01073605
1.1416,-0.008029065
1.1418,-0.006269759
1.142,-0.004128693
1.1422,-0.002060961
1.1424,-0.002020413
1.1426,-0.0006101857
1.1428,0.0003104386
1.143,0.001940877
1.1432,0.002733348
1.1434,0.002645887
1.1436,0.003035499
1.1438,0.00460075
1.144,0.006731689
1.1442,0.007976302
1.1444,0.009437796
1.1446,0.009766015
1.1448,0.008968329
1.145,0.009910225
1.1452,0.0107211
1.1454,0.01049386
1.1456,0.01012024
1.1458,0.01059629
1.146,0.01208593
1.1462,0.01302354
1.1464,0.01264886
1.1466,0.01330764
1.1468,0.01393821
1.147,0.0135996
1.1472,0.0136647
1.1474,0.01504168
1.1476,0.01492968
1.1478,0.01592604
1.148,0.01612452
1.1482,0.01654578
1.1484,0.01715215
1.1486,0.01800546
1.1488,0.01905433
1.149,0.01995426
1.1492,0.01916388
1.1494,0.01762754
1.1496,0.0175181
1.1498,0.01625275
1.15,0.01658714
1.1502,0.01591685
1.1504,0.01373006
1.1506,0.01364599
1.1508,0.01364014
1.151,0.01345074
1.1512,0.0142179
1.1514,0.01365613
1.1516,0.01186255
1.1518,0.01041876
1.152,0.007703702
1.1522,0.007269512
1.1524,0.006398605
1.1526,0.005314284
1.1528,0.002411486
1.153,0.0009127815
1.1532,-0.0002704079
1.1534,-0.002158086
1.1536,-0.003819971
1.1538,-0.004355548
1.154,-0.005492732
1.1542,-0.0078781
1.1544,-0.009205757
1.1546,-0.01051523
1.1548,-0.0114642
1.155,-0.01313616
1.1552,-0.01358289
1.1554,-0.01384662
1.1556,-0.01583587
1.1558,-0.01669567
1.156,-0.01704003
1.1562,-0.01826456
1.1564,-0.0170671
1.1566,-0.01659443
1.1568,-0.01840359
1.157,-0.02002396
1.1572,-0.02096126
1.1574,-0.01989786
1.1576,-0.02002333
1.1578,-0.02067316
1.158,-0.02102198
1.1582,-0.02030365
1.1584,-0.01903623
1.1586,-0.01713474
1.1588,-0.01730643
1.159,-0.0187537
1.1592,-0.01812779
1.1594,-0.01577824
1.1596,-0.01594746
1.1598,-0.01476952
1.16,-0.01498894
1.1602,-0.01406154
1.1604,-0.01275821
1.1606,-0.01183263
1.1608,-0.01140901
1.161,-0.01009504
1.1612,-0.009413374
1.1614,-0.009923121
1.1616,-0.009058969
1.1618,-0.009816605
1.162,-0.008751234
1.1622,-0.005860105
1.1624,-0.002787776
1.1626,-0.001540341
1.1628,-6.20452e-06
1.163,0.0009032235
1.1632,0.002347581
1.1634,0.003972886
1.1636,0.005524893
1.1638,0.007050902
1.164,0.007697118
1.1642,0.009129998
1.1644,0.009823212
1.1646,0.009146766
1.1648,0.01056135
1.165,0.01238282
1.1652,0.01258413
1.1654,0.01210698
1.1656,0.01237057
1.1658,0.01359287
1.166,0.01532125
1.1662,0.01488728
1.1664,0.0154702
1.1666,0.0154124
1.1668,0.01658051
1.167,0.01715468
1.1672,0.01820607
1.1674,0.01681549
1.1676,0.01264048
1.1678,0.009225063
1.168,0.007165899
1.1682,0.004932233
1.1684,0.002643521
1.1686,0.001599062
1.1688,0.003478349
1.169,0.004929255
1.1692,0.005979792
1.1694,0.006398002
1.1696,0.006764685
1.1698,0.006424478
1.17,0.005931188
1.1702,0.008472432
1.1704,0.01051052
1.1706,0.01119518
1.1708,0.01175397
1.171,0.01390817
1.1712,0.01670153
1.1714,0.01668917
1.1716,0.01663164
1.1718,0.01691135
1.172,0.01597345
1.1722,0.01543547
1.1724,0.01526684
1.1726,0.0144894
1.1728,0.0146116
1.173,0.01252028
1.1732,0.01209075
1.1734,0.01013109
1.1736,0.008307323
1.1738,0.009102829
1.174,0.01054091
1.1742,0.009374446
1.1744,0.007963633
1.1746,0.006532351
1.1748,0.004092706
1.175,0.002346644
1.1752,0.001379325
1.1754,0.0002903461
1.1756,-0.003205365
1.1758,-0.007069542
1.176,-0.00911723
1.1762,-0.01131476
1.1764,-0.01295643
1.1766,-0.01488543
1.1768,-0.01683745
1.177,-0.01745681
1.1772,-0.02042317
1.1774,-0.02190681
1.1776,-0.02347684
1.1778,-0.02597485
1.178,-0.02568735
1.1782,-0.02482166
1.1784,-0.02445001
1.1786,-0.02386177
1.1788,-0.02324852
1.179,-0.02211671
1.1792,-0.0197881
1.1794,-0.01978162
1.1796,-0.0198013
1.1798,-0.01966449
1.18,-0.01840278
1.1802,-0.01787409
1.1804,-0.01635351
1.1806,-0.0150823
1.1808,-0.01484004
1.181,-0.01332824
1.1812,-0.01106749
1.1814,-0.01031551
1.1816,-0.009598218
1.1818,-0.007065397
1.182,-0.00341335
1.1822,-0.002320557
1.1824,-0.001981187
1.1826,-0.002108242
1.1828,-0.0002128821
1.183,0.001920694
1.1832,0.002499657
1.1834,0.003811914
1.1836,0.005121999
1.1838,0.005115739
1.184,0.005972303
1.1842,0.006166775
1.1844,0.006953825
1.1846,0.007787975
1.1848,0.0105901
1.185,0.01215432
1.1852,0.0132904
1.1854,0.01248037
1.1856,0.01226298
1.1858,0.01415877
1.186,0.01339456
1.1862,0.01319977
1.1864,0.01340707
1.1866,0.01430242
1.1868,0.01435478
1.187,0.01444258
1.1872,0.01695053
1.1874,0.01705563
1.1876,0.01813192
1.1878,0.0195539
1.188,0.0183926
1.1882,0.01888605
1.1884,0.01936653
1.1886,0.01901432
1.1888,0.01859774
1.189,0.01846908
1.1892,0.01841437
1.1894,0.01797291
1.1896,0.01794707
1.1898,0.01701703
1.19,0.01603712
1.1902,0.01461076
1.1904,0.01302155
1.1906,0.01050108
1.1908,0.01026364
1.191,0.009296875
1.1912,0.008450964
1.1914,0.008128456
1.1916,0.006590319
1.1918,0.005294721
1.192,0.003060285
1.1922,0.0006898742
1.1924,0.0006007432
1.1926,-0.0002632047
1.1928,-0.0002814125
1.193,-0.0007367107
1.1932,-0.004118036
1.1934,-0.006550074
1.1936,-0.007928995
1.1938,-0.008585187
1.194,-0.008650281
1.1942,-0.008802498
1.1944,-0.009126051
1.1946,-0.008632668
1.1948,-0.009235935
1.195,-0.0102097
1.1952,-0.009924809
1.1954,-0.01176845
1.1956,-0.01261638
1.1958,-0.01443275
1.196,-0.01526539
1.1962,-0.0155572
1.1964,-0.01705509
1.1966,-0.01831288
1.1968,-0.01747014
1.197,-0.0174223
1.1972,-0.01863687
1.1974,-0.01858595
1.1976,-0.02004907
1.1978,-0.02079186
1.198,-0.02133713
1.1982,-0.02170116
1.1984,-0.02193197
1.1986,-0.02170498
1.1988,-0.0207115
1.199,-0.02095162
1.1992,-0.02117129
1.1994,-0.0212905
1.1996,-0.02011336
1.1998,-0.01623321
1.2,-0.01508615
1.2002,-0.01293449
1.2004,-0.01068239
1.2006,-0.008991402
1.2008,-0.00839929
1.201,-0.00802785
1.2012,-0.005493307
1.2014,-0.00477495
1.2016,-0.002311322
1.2018,-0.002161547
1.202,-0.001814531
1.2022,0.000105228
1.2024,0.00118716
1.2026,-0.0001033721
1.2028,-0.0001130679
1.203,-0.0003149801
1.2032,0.0004348667
1.2034,0.001095749
1.2036,0.001470969
1.2038,0.003466065
1.204,0.005579628
1.2042,0.008793396
1.2044,0.01099766
1.2046,0.01184824
1.2048,0.0118554
1.205,0.01295913
1.2052,0.014796
1.2054,0.01690357
1.2056,0.01771525
1.2058,0.01712937
1.206,0.0171177
1.2062,0.01747639
1.2064,0.01830072
1.2066,0.01733175
1.2068,0.01573158
1.207,0.01719211
1.2072,0.01745736
1.2074,0.01724534
1.2076,0.01921136
1.2078,0.01942393
1.208,0.01875873
1.2082,0.0168109
1.2084,0.01590444
1.2086,0.01520968
1.2088,0.01349293
1.209,0.01358464
1.2092,0.01439701
1.2094,0.0142011
1.2096,0.01445547
1.2098,0.01329823
1.21,0.01211179
1.2102,0.01060746
1.2104,0.01067286
1.2106,0.01186912
1.2108,0.01081819
1.211,0.01058714
1.2112,0.01091222
1.2114,0.008984519
1.2116,0.005776233
1.2118,0.004504382
1.212,0.003847162
1.2122,0.003467682
1.2124,0.001256466
1.2126,-5.278227e-05
1.2128,6.002682e-05
1.213,0.0003603145
1.2132,-0.0004892793
1.2134,-0.002733779
1.2136,-0.004777606
1.2138,-0.00677475
1.214,-0.008542037
1.2142,-0.008919572
1.2144,-0.01126806
1.2146,-0.01322269
1.2148,-0.01396779
1.215,-0.01524375
1.2152,-0.01614062
1.2154,-0.01686667
1.2156,-0.0172983
1.2158,-0.01792952
1.216,-0.01879801
1.2162,-0.01994746
1.2164,-0.02009713
1.2166,-0.01952612
1.2168,-0.01944186
1.217,-0.01971463
1.2172,-0.01970169
1.2174,-0.01943242
1.2176,-0.02040699
1.2178,-0.02131739
1.218,-0.0231309
1.2182,-0.02331556
1.2184,-0.02031884
1.2186,-0.02101059
1.2188,-0.02130828
1.219,-0.0223747
1.2192,-0.02204344
1.2194,-0.01889969
1.2196,-0.01783187
1.2198,-0.01714271
1.22,-0.01525327
1.2202,-0.01265766
1.2204,-0.01090843
1.2206,-0.009182831
1.2208,-0.006189327
1.221,-0.004425502
1.2212,-0.00252991
1.2214,-0.001575941
1.2216,-0.001988783
1.2218,-0.001733884
1.222,-0.0006447618
1.2222,-0.000473105
1.2224,0.001021457
1.2226,0.001662588
1.2228,0.0005553235
1.223,-0.0006242383
1.2232,0.0005394619
1.2234,0.002773372
1.2236,0.004606525
1.2238,0.004826804
1.224,0.005222525
1.2242,0.006353079
1.2244,0.007209028
1.2246,0.009353894
1.2248,0.01095529
1.225,0.01391936
1.2252,0.01542134
1.2254,0.01521946
1.2256,0.01607536
1.2258,0.01814472
1.226,0.02077977
1.2262,0.02197129
1.2264,0.02361134
1.2266,0.02300977
1.2268,0.0229948
1.227,0.02169691
1.2272,0.02198513
1.2274,0.02268818
1.2276,0.02247172
1.2278,0.02147929
1.228,0.0215146
1.2282,0.0216245
1.2284,0.0205113
1.2286,0.01955257
1.2288,0.01737791
1.229,0.01623281
1.2292,0.01652802
1.2294,0.01540556
1.2296,0.01623515
1.2298,0.01528122
1.23,0.01416469
1.2302,0.0133818
1.2304,0.0122578
1.2306,0.01118684
1.2308,0.009007276
1.231,0.009773659
1.2312,0.01038751
1.2314,0.009119078
1.2316,0.007498975
1.2318,0.006919662
1.232,0.006635559
1.2322,0.004526597
1.2324,0.003320918
1.2326,0.001398584
1.2328,-0.002092612
1.233,-0.003996571
1.2332,-0.005545436
1.2334,-0.006336449
1.2336,-0.007579287
1.2338,-0.00809229
1.234,-0.00838373
1.2342,-0.00747569
1.2344,-0.008381221
1.2346,-0.008808793
1.2348,-0.009160425
1.235,-0.01038985
1.2352,-0.01073583
1.2354,-0.01161337
1.2356,-0.01177034
1.2358,-0.0115022
1.236,-0.01154903
1.2362,-0.0117757
1.2364,-0.01036247
1.2366,-0.01097459
1.2368,-0.01046786
1.237,-0.01043246
1.2372,-0.01136489
1.2374,-0.01352692
1.2376,-0.01400325
1.2378,-0.01325985
1.238,-0.01303823
1.2382,-0.01441152
1.2384,-0.01597379
1.2386,-0.01523999
1.2388,-0.01327879
1.239,-0.01294403
1.2392,-0.01234389
1.2394,-0.01203487
1.2396,-0.012331
1.2398,-0.01184309
1.24,-0.0108433
1.2402,-0.01196893
1.2404,-0.01282326
1.2406,-0.01258455
1.2408,-0.01236162
1.241,-0.01152065
1.2412,-0.01134028
1.2414,-0.01124849
1.2416,-0.01005938
1.2418,-0.009204742
1.242,-0.008269238
1.2422,-0.008696956
1.2424,-0.007536295
1.2426,-0.005273282
1.2428,-0.00305919
1.243,-0.001256257
1.2432,-0.000725359
1.2434,0.0005216052
1.2436,0.0007424382
1.2438,0.002605256
1.244,0.003794285
1.2442,0.004381662
1.2444,0.00421425
1.2446,0.006343561
1.2448,0.008053151
1.245,0.008690423
1.2452,0.009603243
1.2454,0.008575016
1.2456,0.01007298
1.2458,0.01088297
1.246,0.01327051
1.2462,0.01326016
1.2464,0.01318175
1.2466,0.01419083
1.2468,0.01585399
1.247,0.01637368
1.2472,0.01611579
1.2474,0.0178098
1.2476,0.01637191
1.2478,0.01778618
1.248,0.01971854
1.2482,0.01833485
1.2484,0.01555477
1.2486,0.01522426
1.2488,0.01459788
1.249,0.01453607
1.2492,0.01343955
1.2494,0.01355488
1.2496,0.01306028
1.2498,0.01389624
1.25,0.01398772
1.2502,0.01073534
1.2504,0.01062734
1.2506,0.01045419
1.2508,0.01080909
1.251,0.01027367
1.2512,0.009047781
1.2514,0.007943875
1.2516,0.007203843
1.2518,0.007228366
1.252,0.007268286
1.2522,0.006569204
1.2524,0.003891106
1.2526,0.002289053
1.2528,0.001638031
1.253,-0.0001053159
1.2532,-0.0006908659
1.2534,-0.001125949
1.2536,-0.002061727
1.2538,-0.003459557
1.254,-0.005882049
1.2542,-0.008587712
1.2544,-0.009975549
1.2546,-0.01124173
1.2548,-0.01251695
1.255,-0.01260057
1.2552,-0.0127613
1.2554,-0.01392057
1.2556,-0.01543329
1.2558,-0.01612242
1.256,-0.01592596
1.2562,-0.01757478
1.2564,-0.01849274
1.2566,-0.01761146
1.2568,-0.01741283
1.257,-0.01693371
1.2572,-0.01699788
1.2574,-0.01780143
1.2576,-0.0171472
1.2578,-0.01695885
1.258,-0.01720943
1.2582,-0.01663606
1.2584,-0.01587524
1.2586,-0.01705158
1.2588,-0.01846645
1.259,-0.01981257
1.2592,-0.02070876
1.2594,-0.01939489
1.2596,-0.01787833
1.2598,-0.0178323
1.26,-0.01725267
1.2602,-0.01746772
1.2604,-0.01572393
1.2606,-0.01304897
1.2608,-0.01207661
1.261,-0.01181469
1.2612,-0.01179733
1.2614,-0.01013692
1.2616,-0.01004369
1.2618,-0.009133468
1.262,-0.006641385
1.2622,-0.004767378
1.2624,-0.003096694
1.2626,-0.0002527865
1.2628,0.002701222
1.263,0.005072074
1.2632,0.008222877
1.2634,0.01003822
1.2636,0.01188256
1.2638,0.01434674
1.264,0.01625991
1.2642,0.01769462
1.2644,0.01951499
1.2646,0.02008745
1.2648,0.02019078
1.265,0.02024576
1.2652,0.02121986
1.2654,0.02055091
1.2656,0.01876214
1.2658,0.01823629
1.266,0.01699452
1.2662,0.01734283
1.2664,0.01624273
1.2666,0.01651589
1.2668,0.01678594
1.267,0.01760445
1.2672,0.01810717
1.2674,0.01799634
1.2676,0.0178071
1.2678,0.01764419
1.268,0.01928294
1.2682,0.02009821
1.2684,0.01959889
1.2686,0.01822768
1.2688,0.01675684
1.269,0.01705721
1.2692,0.01669172
1.2694,0.01480233
1.2696,0.01547778
1.2698,0.0158583
1.27,0.01697842
1.2702,0.01683954
1.2704,0.01573919
1.2706,0.01501432
1.2708,0.0132234
1.271,0.01245539
1.2712,0.01281306
1.2714,0.01130537
1.2716,0.01117695
1.2718,0.009529671
1.272,0.006475071
1.2722,0.00555294
1.2724,0.00515531
1.2726,0.003849726
1.2728,0.002170937
1.273,0.0009585973
1.2732,-0.0005838763
1.2734,-0.002183454
1.2736,-0.003676273
1.2738,-0.006104065
1.274,-0.0101027
1.2742,-0.01245829
1.2744,-0.01420618
1.2746,-0.01493296
1.2748,-0.0151069
1.275,-0.01630628
1.2752,-0.01851743
1.2754,-0.01877681
1.2756,-0.01753117
1.2758,-0.01818343
1.276,-0.01915934
1.2762,-0.02093059
1.2764,-0.02180466
1.2766,-0.02096324
1.2768,-0.02115337
1.277,-0.02246817
1.2772,-0.0222138
1.2774,-0.02088329
1.2776,-0.02046843
1.2778,-0.0197632
1.278,-0.01992589
1.2782,-0.01998417
1.2784,-0.01863422
1.2786,-0.01681916
1.2788,-0.01636469
1.279,-0.01534529
1.2792,-0.01382694
1.2794,-0.01181178
1.2796,-0.01183806
1.2798,-0.0124688
1.28,-0.01248442
1.2802,-0.01363637
1.2804,-0.01473589
1.2806,-0.01664461
1.2808,-0.01800605
1.281,-0.0169274
1.2812,-0.01472094
1.2814,-0.01244721
1.2816,-0.01043254
1.2818,-0.009157853
1.282,-0.006474562
1.2822,-0.005741238
1.2824,-0.003399202
1.2826,-0.001759425
1.2828,-0.002485007
1.283,-0.002437929
1.2832,-0.0004709025
1.2834,0.001689909
1.2836,0.003305351
1.2838,0.004343552
1.284,0.004893526
1.2842,0.005644651
1.2844,0.007482168
1.2846,0.01021423
1.2848,0.01225944
1.285,0.01327327
1.2852,0.0134198
1.2854,0.01444867
1.2856,0.01430934
1.2858,0.0127512
1.286,0.0129679
1.2862,0.01455508
1.2864,0.01380726
1.2866,0.01508334
1.2868,0.01653242
1.287,0.01755628
1.2872,0.01678295
1.2874,0.01635303
1.2876,0.01775767
1.2878,0.01791939
1.288,0.01840794
1.2882,0.01816179
1.2884,0.01841396
1.2886,0.01836443
1.2888,0.01892223
1.289,0.01937153
1.2892,0.01864501
1.2894,0.01696954
1.2896,0.01631432
1.2898,0.01434651
1.29,0.01138465
1.2902,0.006892132
1.2904,0.001368025
1.2906,-0.002402217
1.2908,-0.005796731
1.291,-0.008172578
1.2912,-0.008132373
1.2914,-0.007122079
1.2916,-0.006162374
1.2918,-0.004562376
1.292,-0.004399985
1.2922,-0.004371851
1.2924,-0.002896497
1.2926,-0.002598718
1.2928,-0.002939609
1.293,-0.002741104
1.2932,-0.002957765
1.2934,-0.003025521
1.2936,-0.001340365
1.2938,-0.00135621
1.294,-0.002379799
1.2942,-0.003348869
1.2944,-0.003310351
1.2946,-0.004158585
1.2948,-0.005587178
1.295,-0.006124401
