time_s,voltage_v
0.0,-0.004212588
0.0002,-0.005296138
0.0004,-0.01019516
0.0006,-0.0144373
0.0008,-0.0163589
0.001,-0.01606064
0.0012,-0.0150722
0.0014,-0.01637406
0.0016,-0.01761688
0.0018,-0.01870742
0.002,-0.02040817
0.0022,-0.02375404
0.0024,-0.02494236
0.0026,-0.02594964
0.0028,-0.02649063
0.003,-0.02704407
0.0032,-0.02702659
0.0034,-0.02856861
0.0036,-0.02837149
0.0038,-0.02834525
0.004,-0.02964302
0.0042,-0.02823323
0.0044,-0.02889702
0.0046,-0.0316437
0.0048,-0.03237429
0.005,-0.02998367
0.0052,-0.02918591
0.0054,-0.02936386
0.0056,-0.02931061
0.0058,-0.02965974
0.006,-0.0271317
0.0062,-0.02466183
0.0064,-0.02352003
0.0066,-0.02148413
0.0068,-0.01980235
0.007,-0.0169863
0.0072,-0.01547762
0.0074,-0.01437533
0.0076,-0.01279762
0.0078,-0.009928364
0.008,-0.008807198
0.0082,-0.008559323
0.0084,-0.00710331
0.0086,-0.004896946
0.0088,-0.002079599
0.009,-0.0009747407
0.0092,-0.002266105
0.0094,-0.002906904
0.0096,-0.001243005
0.0098,-0.0003819728
0.01,0.0009721625
0.0102,0.001687094
0.0104,0.002819953
0.0106,0.004776153
0.0108,0.007598466
0.011,0.01022982
0.0112,0.01092483
0.0114,0.01292145
0.0116,0.0156646
0.0118,0.01615673
0.012,0.01649113
0.0122,0.01739206
0.0124,0.01848984
0.0126,0.0192638
0.0128,0.01953513
0.013,0.02131103
0.0132,0.02034072
0.0134,0.02111127
0.0136,0.02090303
0.0138,0.0187764
0.014,0.01773859
0.0142,0.01834168
0.0144,0.01975957
0.0146,0.02006832
0.0148,0.02138586
0.015,0.02202417
0.0152,0.02437606
0.0154,0.0262323
0.0156,0.02680034
0.0158,0.02755084
0.016,0.02815135
0.0162,0.02664856
0.0164,0.02669262
0.0166,0.02756807
0.0168,0.02837668
0.017,0.02737674
0.0172,0.02538072
0.0174,0.02447448
0.0176,0.02184757
0.0178,0.02075949
0.018,0.01975696
0.0182,0.01751387
0.0184,0.01622377
0.0186,0.01263857
0.0188,0.009709917
0.019,0.008656424
0.0192,0.007319584
0.0194,0.00561403
0.0196,0.004322401
0.0198,0.002862335
0.02,0.0002585849
0.0202,-0.001565925
0.0204,-0.00320299
0.0206,-0.004853123
0.0208,-0.01069838
0.021,-0.01381355
0.0212,-0.01413505
0.0214,-0.01506666
0.0216,-0.0161848
0.0218,-0.01892296
0.022,-0.02083695
0.0222,-0.02320202
0.0224,-0.02632451
0.0226,-0.0274136
0.0228,-0.02709517
0.023,-0.0286012
0.0232,-0.02971248
0.0234,-0.03173787
0.0236,-0.03206687
0.0238,-0.03415051
0.024,-0.03588407
0.0242,-0.03464413
0.0244,-0.03348749
0.0246,-0.03185842
0.0248,-0.03108202
0.025,-0.03061572
0.0252,-0.03033261
0.0254,-0.03006771
0.0256,-0.02956992
0.0258,-0.02889468
0.026,-0.02856125
0.0262,-0.02849777
0.0264,-0.02883928
0.0266,-0.02771578
0.0268,-0.02720412
0.027,-0.02523897
0.0272,-0.02240712
0.0274,-0.02140368
0.0276,-0.01974965
0.0278,-0.01820651
0.028,-0.01712299
0.0282,-0.01624978
0.0284,-0.01390352
0.0286,-0.0114765
0.0288,-0.008178437
0.029,-0.004743895
0.0292,-0.001636511
0.0294,-0.001620339
0.0296,-8.980142e-05
0.0298,0.002690517
0.03,0.004101338
0.0302,0.006571416
0.0304,0.009169141
0.0306,0.01234579
0.0308,0.01478555
0.031,0.01740794
0.0312,0.01954463
0.0314,0.02010893
0.0316,0.02080489
0.0318,0.02376397
0.032,0.02497167
0.0322,0.02617867
0.0324,0.02780619
0.0326,0.03216266
0.0328,0.03558963
0.033,0.03689311
0.0332,0.03759114
0.0334,0.03526704
0.0336,0.03510432
0.0338,0.0356703
0.034,0.03509344
0.0342,0.03492945
0.0344,0.03506302
0.0346,0.03692817
0.0348,0.03631804
0.035,0.03579691
0.0352,0.03386769
0.0354,0.03097266
0.0356,0.03030774
0.0358,0.02901726
0.036,0.02914892
0.0362,0.02730818
0.0364,0.02720811
0.0366,0.02776973
0.0368,0.02643747
0.037,0.02274002
0.0372,0.02078402
0.0374,0.01936465
0.0376,0.01704484
0.0378,0.01538052
0.038,0.01571355
0.0382,0.01417356
0.0384,0.01019339
0.0386,0.008616758
0.0388,0.005340823
0.039,0.002118682
0.0392,-4.982255e-05
0.0394,-0.00142296
0.0396,-0.003318697
0.0398,-0.005457249
0.04,-0.005788407
0.0402,-0.0079096
0.0404,-0.008835536
0.0406,-0.009767315
0.0408,-0.01212277
0.041,-0.01392971
0.0412,-0.01807406
0.0414,-0.01908115
0.0416,-0.01929149
0.0418,-0.0214756
0.042,-0.02297362
0.0422,-0.02383071
0.0424,-0.02421874
0.0426,-0.02578085
0.0428,-0.02676485
0.043,-0.02852092
0.0432,-0.03013828
0.0434,-0.02964489
0.0436,-0.02957875
0.0438,-0.03001875
0.044,-0.03003006
0.0442,-0.03027537
0.0444,-0.03177395
0.0446,-0.03115571
0.0448,-0.03087458
0.045,-0.02917775
0.0452,-0.02882424
0.0454,-0.02793023
0.0456,-0.02697757
0.0458,-0.02826926
0.046,-0.02835142
0.0462,-0.0281633
0.0464,-0.02719403
0.0466,-0.02878238
0.0468,-0.02676482
0.047,-0.02564465
0.0472,-0.02485247
0.0474,-0.02158255
0.0476,-0.01906648
0.0478,-0.01536493
0.048,-0.0139118
0.0482,-0.0125679
0.0484,-0.01131547
0.0486,-0.01060454
0.0488,-0.008849125
0.049,-0.00774211
0.0492,-0.006121899
0.0494,-0.005082048
0.0496,-0.004280596
0.0498,-0.002985243
0.05,0.0006991009
0.0502,0.003377186
0.0504,0.006025386
0.0506,0.009866251
0.0508,0.01212655
0.051,0.01359772
0.0512,0.01501521
0.0514,0.0165155
0.0516,0.01895395
0.0518,0.02125828
0.052,0.02226423
0.0522,0.02101124
0.0524,0.02243695
0.0526,0.0256515
0.0528,0.02693046
0.053,0.02687055
0.0532,0.0289803
0.0534,0.03171362
0.0536,0.03143237
0.0538,0.03042958
0.054,0.03113017
0.0542,0.03071315
0.0544,0.03048785
0.0546,0.02934719
0.0548,0.03112589
0.055,0.03184369
0.0552,0.03060852
0.0554,0.02998756
0.0556,0.0286843
0.0558,0.02892977
0.056,0.02834193
0.0562,0.02910411
0.0564,0.03097346
0.0566,0.02954127
0.0568,0.02658718
0.057,0.02370858
0.0572,0.02154441
0.0574,0.02159796
0.0576,0.01904243
0.0578,0.01800727
0.058,0.01505246
0.0582,0.0129586
0.0584,0.009993316
0.0586,0.006241853
0.0588,0.003971523
0.059,0.001992002
0.0592,0.002448661
0.0594,0.00102551
0.0596,0.0002592102
0.0598,-0.001315232
0.06,-0.003198215
0.0602,-0.002882501
0.0604,-0.004230371
0.0606,-0.007625381
0.0608,-0.01145998
0.061,-0.0135504
0.0612,-0.01549176
0.0614,-0.01570489
0.0616,-0.01910396
0.0618,-0.02136971
0.062,-0.02284861
0.0622,-0.02417301
0.0624,-0.0246867
0.0626,-0.02578948
0.0628,-0.02645922
0.063,-0.02765332
0.0632,-0.02873827
0.0634,-0.03097573
0.0636,-0.03225774
0.0638,-0.03136167
0.064,-0.03035542
0.0642,-0.03037818
0.0644,-0.03108003
0.0646,-0.03099984
0.0648,-0.031599
0.065,-0.03074448
0.0652,-0.03223954
0.0654,-0.03276732
0.0656,-0.03075197
0.0658,-0.03081489
0.066,-0.03064313
0.0662,-0.03061812
0.0664,-0.03011028
0.0666,-0.02900981
0.0668,-0.02814
0.067,-0.02547586
0.0672,-0.02383692
0.0674,-0.02284797
0.0676,-0.02210101
0.0678,-0.02229603
0.068,-0.0208262
0.0682,-0.017045
0.0684,-0.01379514
0.0686,-0.01125701
0.0688,-0.007908561
0.069,-0.005171352
0.0692,-0.004216055
0.0694,-0.003091374
0.0696,-0.001521731
0.0698,0.0007086569
0.07,0.003563568
0.0702,0.005295688
0.0704,0.006179129
0.0706,0.007951295
0.0708,0.009808528
0.071,0.01313531
0.0712,0.01347707
0.0714,0.01543325
0.0716,0.01826197
0.0718,0.02075977
0.072,0.02323101
0.0722,0.02483267
0.0724,0.02608474
0.0726,0.02751709
0.0728,0.02917248
0.073,0.03170058
0.0732,0.03226163
0.0734,0.03327501
0.0736,0.03217949
0.0738,0.03207204
0.074,0.03313934
0.0742,0.03366083
0.0744,0.03606609
0.0746,0.03596503
0.0748,0.03615477
0.075,0.03654224
0.0752,0.03530121
0.0754,0.03288082
0.0756,0.03215631
0.0758,0.03345653
0.076,0.03207122
0.0762,0.03127369
0.0764,0.03078151
0.0766,0.03068085
0.0768,0.0292213
0.077,0.02655052
0.0772,0.02589049
0.0774,0.02387811
0.0776,0.01943685
0.0778,0.01785868
0.078,0.01555985
0.0782,0.01354511
0.0784,0.0113839
0.0786,0.008480008
0.0788,0.005337374
0.079,0.003739347
0.0792,0.002890527
0.0794,0.0008185051
0.0796,-0.0008031675
0.0798,-0.001486209
0.08,-0.002541116
0.0802,-0.003443658
0.0804,-0.007277386
0.0806,-0.01086193
0.0808,-0.01317747
0.081,-0.01515315
0.0812,-0.01736121
0.0814,-0.01871204
0.0816,-0.01936981
0.0818,-0.02180596
0.082,-0.02351598
0.0822,-0.02575848
0.0824,-0.02744845
0.0826,-0.02845464
0.0828,-0.03138505
0.083,-0.0332535
0.0832,-0.03460178
0.0834,-0.03406021
0.0836,-0.0329584
0.0838,-0.03473732
0.084,-0.0355244
0.0842,-0.03554989
0.0844,-0.03554304
0.0846,-0.03424649
0.0848,-0.0333401
0.085,-0.03100999
0.0852,-0.0301959
0.0854,-0.02944433
0.0856,-0.0296233
0.0858,-0.02905638
0.086,-0.02861442
0.0862,-0.0275515
0.0864,-0.02824956
0.0866,-0.02705514
0.0868,-0.02585275
0.087,-0.02463176
0.0872,-0.02346174
0.0874,-0.02314652
0.0876,-0.02106263
0.0878,-0.0195207
0.088,-0.01697872
0.0882,-0.01393876
0.0884,-0.01079967
0.0886,-0.008107558
0.0888,-0.006424
0.089,-0.003673278
0.0892,-0.0002656068
0.0894,0.001042067
0.0896,0.004177693
0.0898,0.006324508
0.09,0.007591574
0.0902,0.009191646
0.0904,0.01238694
0.0906,0.01310075
0.0908,0.01358742
0.091,0.01546937
0.0912,0.01696759
0.0914,0.01888663
0.0916,0.01931012
0.0918,0.02062274
0.092,0.02175613
0.0922,0.02248892
0.0924,0.02399385
0.0926,0.02718948
0.0928,0.02969889
0.093,0.03215937
0.0932,0.03488725
0.0934,0.03556629
0.0936,0.03468815
0.0938,0.03226445
0.094,0.031282
0.0942,0.03123891
0.0944,0.03221681
0.0946,0.03188454
0.0948,0.02978949
0.095,0.02946028
0.0952,0.02881378
0.0954,0.02717833
0.0956,0.0268807
0.0958,0.02621805
0.096,0.02693297
0.0962,0.02717391
0.0964,0.02700658
0.0966,0.02742458
0.0968,0.02621937
0.097,0.02370036
0.0972,0.02231048
0.0974,0.01930935
0.0976,0.01594505
0.0978,0.01460981
0.098,0.01215594
0.0982,0.01053013
0.0984,0.009405853
0.0986,0.005775813
0.0988,0.002815744
0.099,0.0008320436
0.0992,0.0002548328
0.0994,0.0004079283
0.0996,0.0006358653
0.0998,0.001441704
0.1,0.0002344156
0.1002,-0.002650482
0.1004,-0.004846426
0.1006,-0.00685073
0.1008,-0.008031262
0.101,-0.01066716
0.1012,-0.01349034
0.1014,-0.01535296
0.1016,-0.01944601
0.1018,-0.02319016
0.102,-0.02607954
0.1022,-0.02730203
0.1024,-0.02869792
0.1026,-0.0291266
0.1028,-0.03052957
0.103,-0.03180376
0.1032,-0.03329312
0.1034,-0.03449922
0.1036,-0.03461492
0.1038,-0.03261223
0.104,-0.03166135
0.1042,-0.03172059
0.1044,-0.03112911
0.1046,-0.03193654
0.1048,-0.03277149
0.105,-0.03213954
0.1052,-0.03160891
0.1054,-0.03140767
0.1056,-0.03037734
0.1058,-0.02962524
0.106,-0.02772029
0.1062,-0.02811852
0.1064,-0.02834911
0.1066,-0.02854099
0.1068,-0.02604949
0.107,-0.02392484
0.1072,-0.02194881
0.1074,-0.0180759
0.1076,-0.01485301
0.1078,-0.01412051
0.108,-0.01278558
0.1082,-0.01190892
0.1084,-0.008639907
0.1086,-0.005976249
0.1088,-0.005603109
0.109,-0.003882826
0.1092,-0.002119263
0.1094,0.001523638
0.1096,0.00248672
0.1098,0.004698697
0.11,0.00814419
0.1102,0.01135164
0.1104,0.01361293
0.1106,0.01433774
0.1108,0.01517919
0.111,0.016559
0.1112,0.01789186
0.1114,0.02069947
0.1116,0.02361872
0.1118,0.02415065
0.112,0.02391336
0.1122,0.02307153
0.1124,0.02519788
0.1126,0.02666718
0.1128,0.02784541
0.113,0.02901035
0.1132,0.030323
0.1134,0.03250374
0.1136,0.03299294
0.1138,0.03313899
0.114,0.03246632
0.1142,0.03298244
0.1144,0.03330905
0.1146,0.03468406
0.1148,0.03356013
0.115,0.03283067
0.1152,0.03487451
0.1154,0.03457397
0.1156,0.0354552
0.1158,0.03267773
0.116,0.03165078
0.1162,0.03078822
0.1164,0.02814491
0.1166,0.02792384
0.1168,0.02779322
0.117,0.02574447
0.1172,0.02220888
0.1174,0.02134511
0.1176,0.01956337
0.1178,0.01812558
0.118,0.01708901
0.1182,0.0165694
0.1184,0.01608742
0.1186,0.01327735
0.1188,0.01143845
0.119,0.008549693
0.1192,0.006190991
0.1194,0.003911298
0.1196,0.0006659564
0.1198,-0.001321524
0.12,-0.003266258
0.1202,-0.003831472
0.1204,-0.004556261
0.1206,-0.009575858
0.1208,-0.01266126
0.121,-0.01332032
0.1212,-0.01490534
0.1214,-0.01669561
0.1216,-0.02022845
0.1218,-0.02277696
0.122,-0.02521717
0.1222,-0.02674508
0.1224,-0.02857424
0.1226,-0.0298268
0.1228,-0.03119228
0.123,-0.0319811
0.1232,-0.0328983
0.1234,-0.03346372
0.1236,-0.03287863
0.1238,-0.03232231
0.124,-0.03029062
0.1242,-0.03133736
0.1244,-0.03078549
0.1246,-0.03223993
0.1248,-0.03382031
0.125,-0.03380508
0.1252,-0.03319959
0.1254,-0.03215641
0.1256,-0.0326191
0.1258,-0.03139483
0.126,-0.03173547
0.1262,-0.02965544
0.1264,-0.02728655
0.1266,-0.02658265
0.1268,-0.02658556
0.127,-0.02652476
0.1272,-0.02511797
0.1274,-0.02411274
0.1276,-0.02316238
0.1278,-0.02072051
0.128,-0.01720241
0.1282,-0.01458192
0.1284,-0.01220436
0.1286,-0.00950672
0.1288,-0.007827823
0.129,-0.005130948
0.1292,-0.00273448
0.1294,-0.0004189333
0.1296,0.001689059
0.1298,0.004830415
0.13,0.005925624
0.1302,0.00527361
0.1304,0.007423089
0.1306,0.0105449
0.1308,0.01312413
0.131,0.01516345
0.1312,0.01706828
0.1314,0.01824863
0.1316,0.01931239
0.1318,0.02209936
0.132,0.02499678
0.1322,0.02638604
0.1324,0.02625351
0.1326,0.02871113
0.1328,0.02938806
0.133,0.02865314
0.1332,0.02860101
0.1334,0.02814839
0.1336,0.02853053
0.1338,0.02980399
0.134,0.02851453
0.1342,0.02764563
0.1344,0.02949674
0.1346,0.0301135
0.1348,0.03136992
0.135,0.03250832
0.1352,0.03449859
0.1354,0.03388738
0.1356,0.03367571
0.1358,0.03456839
0.136,0.03431326
0.1362,0.03158051
0.1364,0.02956494
0.1366,0.02695122
0.1368,0.02510499
0.137,0.02536315
0.1372,0.02451443
0.1374,0.0223146
0.1376,0.01886421
0.1378,0.0156168
0.138,0.01430821
0.1382,0.01243586
0.1384,0.01109967
0.1386,0.008344486
0.1388,0.005283839
0.139,0.002583162
0.1392,-0.0008680602
0.1394,-0.001614191
0.1396,-0.002237949
0.1398,-0.0032129
0.14,-0.004827269
0.1402,-0.006400521
0.1404,-0.008329903
0.1406,-0.01125614
0.1408,-0.01290736
0.141,-0.01598452
0.1412,-0.01829161
0.1414,-0.01997292
0.1416,-0.02130507
0.1418,-0.02381201
0.142,-0.02548508
0.1422,-0.02770608
0.1424,-0.03010615
0.1426,-0.03164959
0.1428,-0.03168942
0.143,-0.03094777
0.1432,-0.03220191
0.1434,-0.0324228
0.1436,-0.03439105
0.1438,-0.03554638
0.144,-0.03660545
0.1442,-0.03809045
0.1444,-0.03930794
0.1446,-0.04066683
0.1448,-0.03919542
0.145,-0.03894211
0.1452,-0.03907692
0.1454,-0.03720811
0.1456,-0.03665813
0.1458,-0.0360339
0.146,-0.03579315
0.1462,-0.03455645
0.1464,-0.0335177
0.1466,-0.03346597
0.1468,-0.0325701
0.147,-0.02992053
0.1472,-0.02665682
0.1474,-0.02491894
0.1476,-0.02035094
0.1478,-0.01762369
0.148,-0.0156429
0.1482,-0.01285271
0.1484,-0.01098322
0.1486,-0.006186787
0.1488,-0.003485316
0.149,-0.0002632462
0.1492,0.002583674
0.1494,0.004445995
0.1496,0.007023956
0.1498,0.005816136
0.15,0.006363762
0.1502,0.009758737
0.1504,0.01273056
0.1506,0.01635661
0.1508,0.01936346
0.151,0.02330184
0.1512,0.02756427
0.1514,0.02990353
0.1516,0.03115616
0.1518,0.03504008
0.152,0.03598778
0.1522,0.03654505
0.1524,0.03780583
0.1526,0.0390595
0.1528,0.03860527
0.153,0.0371731
0.1532,0.03939604
0.1534,0.03929766
0.1536,0.03940261
0.1538,0.03881716
0.154,0.03965534
0.1542,0.03765543
0.1544,0.0368662
0.1546,0.03715988
0.1548,0.03521634
0.155,0.03440796
0.1552,0.03164319
0.1554,0.03262395
0.1556,0.03167743
0.1558,0.03049909
0.156,0.02971936
0.1562,0.02823245
0.1564,0.0281502
0.1566,0.02844726
0.1568,0.02670527
0.157,0.02319922
0.1572,0.02205815
0.1574,0.02178355
0.1576,0.02018081
0.1578,0.01721448
0.158,0.01454544
0.1582,0.01276677
0.1584,0.01032148
0.1586,0.008841974
0.1588,0.006936613
0.159,0.005680419
0.1592,0.004829659
0.1594,0.002909329
0.1596,0.001230694
0.1598,-0.002236272
0.16,-0.0045918
0.1602,-0.007291943
0.1604,-0.009546172
0.1606,-0.01240808
0.1608,-0.0158962
0.161,-0.01884755
0.1612,-0.02152695
0.1614,-0.02384818
0.1616,-0.02522837
0.1618,-0.02708268
0.162,-0.0289717
0.1622,-0.0286661
0.1624,-0.02953098
0.1626,-0.0303066
0.1628,-0.03141992
0.163,-0.03270567
0.1632,-0.03420026
0.1634,-0.03274676
0.1636,-0.031937
0.1638,-0.03376109
0.164,-0.03266171
0.1642,-0.03114521
0.1644,-0.03096748
0.1646,-0.03264067
0.1648,-0.03279361
0.165,-0.03380945
0.1652,-0.03380877
0.1654,-0.03454327
0.1656,-0.03256703
0.1658,-0.03246013
0.166,-0.03219394
0.1662,-0.03059763
0.1664,-0.03065506
0.1666,-0.02873913
0.1668,-0.02727911
0.167,-0.0256026
0.1672,-0.02354027
0.1674,-0.02094617
0.1676,-0.01944127
0.1678,-0.02029368
0.168,-0.01661146
0.1682,-0.01380303
0.1684,-0.01185442
0.1686,-0.009837413
0.1688,-0.007571729
0.169,-0.005111404
0.1692,-0.004377467
0.1694,-0.001637421
0.1696,0.0005036748
0.1698,0.001172843
0.17,0.003198046
0.1702,0.00721227
0.1704,0.01027396
0.1706,0.01284623
0.1708,0.01473519
0.171,0.01606786
0.1712,0.0180043
0.1714,0.02004245
0.1716,0.02211053
0.1718,0.02272726
0.172,0.02365117
0.1722,0.0242477
0.1724,0.02624267
0.1726,0.02755942
0.1728,0.03045436
0.173,0.0322011
0.1732,0.03315995
0.1734,0.0336561
0.1736,0.03301028
0.1738,0.03353069
0.174,0.03393288
0.1742,0.03420932
0.1744,0.03181412
0.1746,0.03136886
0.1748,0.03204161
0.175,0.0320351
0.1752,0.03198228
0.1754,0.03071753
0.1756,0.02904659
0.1758,0.02804969
0.176,0.02666545
0.1762,0.02539403
0.1764,0.02443995
0.1766,0.0237551
0.1768,0.02167979
0.177,0.01917608
0.1772,0.01817127
0.1774,0.01687284
0.1776,0.0170533
0.1778,0.01542048
0.178,0.01518569
0.1782,0.01336516
0.1784,0.01093665
0.1786,0.00959333
0.1788,0.007433858
0.179,0.006165732
0.1792,0.00452442
0.1794,0.002073071
0.1796,0.0001226414
0.1798,-0.002628885
0.18,-0.00377872
0.1802,-0.005701584
0.1804,-0.008838662
0.1806,-0.01120688
0.1808,-0.01516635
0.181,-0.01811907
0.1812,-0.02092063
0.1814,-0.0215795
0.1816,-0.02247933
0.1818,-0.02489546
0.182,-0.02572603
0.1822,-0.02791403
0.1824,-0.02965617
0.1826,-0.03285019
0.1828,-0.03257507
0.183,-0.03190828
0.1832,-0.03138953
0.1834,-0.03076103
0.1836,-0.03323327
0.1838,-0.03447258
0.184,-0.03490085
0.1842,-0.03484854
0.1844,-0.03605788
0.1846,-0.03550613
0.1848,-0.03425162
0.185,-0.03613882
0.1852,-0.03695209
0.1854,-0.03581279
0.1856,-0.03523556
0.1858,-0.03262129
0.186,-0.030877
0.1862,-0.03042696
0.1864,-0.03092799
0.1866,-0.0295423
0.1868,-0.0289835
0.187,-0.02611446
0.1872,-0.02519513
0.1874,-0.02483383
0.1876,-0.0212376
0.1878,-0.01891672
0.188,-0.01649528
0.1882,-0.01279822
0.1884,-0.008966475
0.1886,-0.00645522
0.1888,-0.004691715
0.189,-0.001992992
0.1892,-0.000274283
0.1894,0.0007666877
0.1896,0.001769626
0.1898,0.003483329
0.19,0.005645899
0.1902,0.007188726
0.1904,0.009871231
0.1906,0.01283195
0.1908,0.01567846
0.191,0.01780565
0.1912,0.01987419
0.1914,0.02036271
0.1916,0.02162542
0.1918,0.0237879
0.192,0.02397294
0.1922,0.02589847
0.1924,0.02850364
0.1926,0.0299911
0.1928,0.03035082
0.193,0.03155851
0.1932,0.03273671
0.1934,0.03327322
0.1936,0.03430945
0.1938,0.03554194
0.194,0.0368856
0.1942,0.03537786
0.1944,0.03456512
0.1946,0.03486694
0.1948,0.03385897
0.195,0.03288333
0.1952,0.03259137
0.1954,0.03217953
0.1956,0.03102559
0.1958,0.03136998
0.196,0.03216879
0.1962,0.02953603
0.1964,0.02895167
0.1966,0.02865279
0.1968,0.02585865
0.197,0.02385866
0.1972,0.02224602
0.1974,0.02240997
0.1976,0.02029427
0.1978,0.0182099
0.198,0.01690402
0.1982,0.01493235
0.1984,0.01153648
0.1986,0.009295529
0.1988,0.006429558
0.199,0.002938953
0.1992,0.001181932
0.1994,-0.001327057
0.1996,-0.00199611
0.1998,-0.004755362
0.2,-0.007187082
0.2002,-0.007622
0.2004,-0.008790569
0.2006,-0.0103566
0.2008,-0.01219189
0.201,-0.0138593
0.2012,-0.01552201
0.2014,-0.01728585
0.2016,-0.0198852
0.2018,-0.02265252
0.202,-0.02393531
0.2022,-0.02333907
0.2024,-0.02535924
0.2026,-0.02723904
0.2028,-0.02817731
0.203,-0.0304471
0.2032,-0.03212502
0.2034,-0.03305258
0.2036,-0.03312192
0.2038,-0.03279971
0.204,-0.03310163
0.2042,-0.03254317
0.2044,-0.03347005
0.2046,-0.03477143
0.2048,-0.03493524
0.205,-0.03386227
0.2052,-0.03245258
0.2054,-0.03215342
0.2056,-0.03155838
0.2058,-0.0310012
0.206,-0.03084125
0.2062,-0.02860821
0.2064,-0.02587061
0.2066,-0.02621607
0.2068,-0.02487143
0.207,-0.02316215
0.2072,-0.02266721
0.2074,-0.02272512
0.2076,-0.01980759
0.2078,-0.01623634
0.208,-0.01562059
0.2082,-0.01244649
0.2084,-0.0121462
0.2086,-0.01221598
0.2088,-0.01100086
0.209,-0.008864866
0.2092,-0.007292102
0.2094,-0.005995922
0.2096,-0.003938815
0.2098,-0.003125285
0.21,-0.000344316
0.2102,0.003113908
0.2104,0.006484554
0.2106,0.008882868
0.2108,0.01279308
0.211,0.01544965
0.2112,0.01642581
0.2114,0.0174207
0.2116,0.0180772
0.2118,0.0209425
0.212,0.02222131
0.2122,0.0234183
0.2124,0.02467917
0.2126,0.02672031
0.2128,0.02791711
0.213,0.02973094
0.2132,0.03184211
0.2134,0.03043619
0.2136,0.03181932
0.2138,0.03235777
0.214,0.03262324
0.2142,0.03226815
0.2144,0.03337684
0.2146,0.03539076
0.2148,0.03524907
0.215,0.0349115
0.2152,0.03352781
0.2154,0.0336262
0.2156,0.03268576
0.2158,0.03121352
0.216,0.03194766
0.2162,0.03114295
0.2164,0.02970118
0.2166,0.02842721
0.2168,0.02671549
0.217,0.02517538
0.2172,0.02231042
0.2174,0.02219125
0.2176,0.01978037
0.2178,0.01774078
0.218,0.01668279
0.2182,0.0145727
0.2184,0.01327744
0.2186,0.01181975
0.2188,0.01045601
0.219,0.00602746
0.2192,0.00368116
0.2194,0.001688901
0.2196,-0.0007877933
0.2198,-0.001229438
0.22,-0.001565125
0.2202,-0.002891329
0.2204,-0.005792697
0.2206,-0.009848156
0.2208,-0.01354769
0.221,-0.01564651
0.2212,-0.0151847
0.2214,-0.01694041
0.2216,-0.02017119
0.2218,-0.02243698
0.222,-0.02375341
0.2222,-0.02622363
0.2224,-0.02777839
0.2226,-0.02888001
0.2228,-0.02983967
0.223,-0.02925161
0.2232,-0.0301081
0.2234,-0.03035282
0.2236,-0.03154213
0.2238,-0.0341574
0.224,-0.03370524
0.2242,-0.032187
0.2244,-0.03303023
0.2246,-0.03248139
0.2248,-0.03230678
0.225,-0.03086276
0.2252,-0.02927652
0.2254,-0.02827052
0.2256,-0.03006595
0.2258,-0.02908234
0.226,-0.0267608
0.2262,-0.02606172
0.2264,-0.02624332
0.2266,-0.02626991
0.2268,-0.02471627
0.227,-0.02439307
0.2272,-0.02278851
0.2274,-0.02232882
0.2276,-0.02018327
0.2278,-0.01789228
0.228,-0.01543306
0.2282,-0.01399907
0.2284,-0.0139552
0.2286,-0.01112115
0.2288,-0.008514701
0.229,-0.005151188
0.2292,-0.003344606
0.2294,0.0004789993
0.2296,0.003226938
0.2298,0.005423803
0.23,0.006182048
0.2302,0.007235388
0.2304,0.01065845
0.2306,0.01177243
0.2308,0.01315013
0.231,0.01335375
0.2312,0.0148074
0.2314,0.01563843
0.2316,0.0173773
0.2318,0.01965957
0.232,0.02166338
0.2322,0.02484242
0.2324,0.02621184
0.2326,0.02728237
0.2328,0.0273533
0.233,0.02782717
0.2332,0.02964141
0.2334,0.03053896
0.2336,0.03037299
0.2338,0.0309484
0.234,0.03096109
0.2342,0.03229432
0.2344,0.0341552
0.2346,0.03423984
0.2348,0.0337092
0.235,0.03314455
0.2352,0.03231678
0.2354,0.03169235
0.2356,0.03125206
0.2358,0.03054418
0.236,0.03002
0.2362,0.03065178
0.2364,0.03044389
0.2366,0.03016232
0.2368,0.02788634
0.237,0.02542458
0.2372,0.02347834
0.2374,0.02192963
0.2376,0.01905903
0.2378,0.01799753
0.238,0.01688977
0.2382,0.01357422
0.2384,0.01159356
0.2386,0.01018696
0.2388,0.009640526
0.239,0.006682505
0.2392,0.003066847
0.2394,0.000237044
0.2396,-0.003809181
0.2398,-0.006242799
0.24,-0.005220759
0.2402,-0.005575221
0.2404,-0.008691776
0.2406,-0.01051117
0.2408,-0.01200408
0.241,-0.01485422
0.2412,-0.01752243
0.2414,-0.01865344
0.2416,-0.01974735
0.2418,-0.02317123
0.242,-0.02621192
0.2422,-0.02714649
0.2424,-0.02866829
0.2426,-0.03088694
0.2428,-0.03257247
0.243,-0.03208726
0.2432,-0.03258087
0.2434,-0.03221833
0.2436,-0.03083279
0.2438,-0.03231294
0.244,-0.03392539
0.2442,-0.03419036
0.2444,-0.03185317
0.2446,-0.03251705
0.2448,-0.03269242
0.245,-0.03234415
0.2452,-0.03298001
0.2454,-0.03296273
0.2456,-0.03269742
0.2458,-0.03229397
0.246,-0.0318842
0.2462,-0.02994424
0.2464,-0.02768678
0.2466,-0.02698748
0.2468,-0.02552354
0.247,-0.02397019
0.2472,-0.02253536
0.2474,-0.02118854
0.2476,-0.01954513
0.2478,-0.0167232
0.248,-0.01382707
0.2482,-0.01189643
0.2484,-0.009171193
0.2486,-0.006827912
0.2488,-0.005315394
0.249,-0.004240564
0.2492,-0.002799249
0.2494,-0.0002417159
0.2496,0.0005001347
0.2498,0.00183573
0.25,0.003186601
0.2502,0.005287991
0.2504,0.008700387
0.2506,0.01165427
0.2508,0.01308531
0.251,0.01401572
0.2512,0.01508553
0.2514,0.0180455
0.2516,0.02154639
0.2518,0.02463848
0.252,0.02669746
0.2522,0.02801169
0.2524,0.03046806
0.2526,0.03099616
0.2528,0.03189045
0.253,0.03211347
0.2532,0.03424206
0.2534,0.0361765
0.2536,0.03669088
0.2538,0.03799922
0.254,0.03808852
0.2542,0.03752381
0.2544,0.0365724
0.2546,0.03578565
0.2548,0.03501861
0.255,0.03500693
0.2552,0.03431726
0.2554,0.0332186
0.2556,0.03453492
0.2558,0.03271213
0.256,0.02936411
0.2562,0.02894894
0.2564,0.02926909
0.2566,0.02962567
0.2568,0.02746186
0.257,0.02624922
0.2572,0.0238965
0.2574,0.02201168
0.2576,0.02061762
0.2578,0.01803117
0.258,0.01495706
0.2582,0.01107502
0.2584,0.009202616
0.2586,0.00717469
0.2588,0.004859478
0.259,0.002124408
0.2592,0.0002310569
0.2594,-0.0009222258
0.2596,-0.002040498
0.2598,-0.003577265
0.26,-0.005008733
0.2602,-0.007192175
0.2604,-0.007859324
0.2606,-0.009973566
0.2608,-0.01207703
0.261,-0.01395877
0.2612,-0.0149296
0.2614,-0.01759612
0.2616,-0.0195312
0.2618,-0.0205602
0.262,-0.02122347
0.2622,-0.0229715
0.2624,-0.02648612
0.2626,-0.02795982
0.2628,-0.03035977
0.263,-0.03135302
0.2632,-0.03245666
0.2634,-0.03430152
0.2636,-0.03509239
0.2638,-0.03600983
0.264,-0.03669649
0.2642,-0.03519827
0.2644,-0.03442756
0.2646,-0.03327297
0.2648,-0.03524614
0.265,-0.03464419
0.2652,-0.03277316
0.2654,-0.03225926
0.2656,-0.03153998
0.2658,-0.03018294
0.266,-0.02899813
0.2662,-0.0278176
0.2664,-0.02709015
0.2666,-0.0278224
0.2668,-0.02582403
0.267,-0.02281591
0.2672,-0.02188004
0.2674,-0.01899125
0.2676,-0.01705064
0.2678,-0.01654598
0.268,-0.01507443
0.2682,-0.0123302
0.2684,-0.009398938
0.2686,-0.007397299
0.2688,-0.005133645
0.269,-0.00287946
0.2692,-0.0002813542
0.2694,0.001689473
0.2696,0.003562431
0.2698,0.002971888
0.27,0.004537494
0.2702,0.007229403
0.2704,0.01061142
0.2706,0.01264025
0.2708,0.01388821
0.271,0.01536495
0.2712,0.01474892
0.2714,0.01677815
0.2716,0.02033796
0.2718,0.02206342
0.272,0.02361993
0.2722,0.02505844
0.2724,0.02501184
0.2726,0.02427782
0.2728,0.02580074
0.273,0.02784393
0.2732,0.02853822
0.2734,0.02941437
0.2736,0.03086893
0.2738,0.03121382
0.274,0.0304027
0.2742,0.03051546
0.2744,0.03129572
0.2746,0.03216415
0.2748,0.03131332
0.275,0.0298805
0.2752,0.0292768
0.2754,0.03089797
0.2756,0.02978796
0.2758,0.02869178
0.276,0.02922254
0.2762,0.02711475
0.2764,0.02502768
0.2766,0.02242823
0.2768,0.01991856
0.277,0.01919905
0.2772,0.01713417
0.2774,0.01741583
0.2776,0.01491549
0.2778,0.01380315
0.278,0.01459556
0.2782,0.01209273
0.2784,0.01111273
0.2786,0.00901543
0.2788,0.006279256
0.279,0.003995298
0.2792,0.001686314
0.2794,-0.0002560787
0.2796,-0.001276483
0.2798,-0.002579926
0.28,-0.003529214
0.2802,-0.005178925
0.2804,-0.007921487
0.2806,-0.01064711
0.2808,-0.01269958
0.281,-0.01643763
0.2812,-0.01915741
0.2814,-0.01964499
0.2816,-0.02184689
0.2818,-0.02375632
0.282,-0.02484431
0.2822,-0.02465339
0.2824,-0.02651819
0.2826,-0.02553689
0.2828,-0.02573806
0.283,-0.02813859
0.2832,-0.02981254
0.2834,-0.03082226
0.2836,-0.03015161
0.2838,-0.02946219
0.284,-0.02721746
0.2842,-0.02677535
0.2844,-0.0300239
0.2846,-0.03067218
0.2848,-0.03127821
0.285,-0.03145528
0.2852,-0.03114707
0.2854,-0.0304597
0.2856,-0.03009492
0.2858,-0.03037614
0.286,-0.03022706
0.2862,-0.02905273
0.2864,-0.0265979
0.2866,-0.02668915
0.2868,-0.02558119
0.287,-0.02286492
0.2872,-0.0195993
0.2874,-0.01899041
0.2876,-0.01802681
0.2878,-0.01753045
0.288,-0.01577753
0.2882,-0.01248991
0.2884,-0.01029444
0.2886,-0.006840134
0.2888,-0.005081762
0.289,-0.002961569
0.2892,-0.0005003549
0.2894,0.0001676204
0.2896,0.002031521
0.2898,0.00197769
0.29,0.003144068
0.2902,0.006002279
0.2904,0.009241453
0.2906,0.01344125
0.2908,0.01704077
0.291,0.01780101
0.2912,0.01779937
0.2914,0.01848683
0.2916,0.01984072
0.2918,0.02083897
0.292,0.02214576
0.2922,0.02369447
0.2924,0.02572095
0.2926,0.02758786
0.2928,0.03000225
0.293,0.03129381
0.2932,0.03154116
0.2934,0.03294465
0.2936,0.03141831
0.2938,0.03226691
0.294,0.03329274
0.2942,0.03581358
0.2944,0.03450693
0.2946,0.03396127
0.2948,0.03425032
0.295,0.03275251
0.2952,0.03178427
0.2954,0.03047404
0.2956,0.02999932
0.2958,0.02921514
0.296,0.02790049
0.2962,0.02474148
0.2964,0.0249967
0.2966,0.02579708
0.2968,0.0245568
0.297,0.02346885
0.2972,0.0211353
0.2974,0.01849728
0.2976,0.01634262
0.2978,0.01441797
0.298,0.01401628
0.2982,0.01340201
0.2984,0.01107064
0.2986,0.00824251
0.2988,0.005313423
0.299,0.003255144
0.2992,0.00132789
0.2994,-0.0001136666
0.2996,-0.001095677
0.2998,-0.001905006
0.3,-0.003055121
0.3002,-0.004423377
0.3004,-0.007850993
0.3006,-0.009982443
0.3008,-0.01255871
0.301,-0.01445096
0.3012,-0.01423299
0.3014,-0.01629742
0.3016,-0.01917256
0.3018,-0.02212477
0.302,-0.024935
0.3022,-0.02693019
0.3024,-0.02700355
0.3026,-0.02731445
0.3028,-0.03013276
0.303,-0.02961036
0.3032,-0.0300795
0.3034,-0.03035158
0.3036,-0.03159466
0.3038,-0.032539
0.304,-0.03205017
0.3042,-0.031635
0.3044,-0.03123863
0.3046,-0.03236075
0.3048,-0.03103232
0.305,-0.0306616
0.3052,-0.02961744
0.3054,-0.02917838
0.3056,-0.02825772
0.3058,-0.02780864
0.306,-0.02760413
0.3062,-0.02759504
0.3064,-0.02661497
0.3066,-0.02423246
0.3068,-0.02330991
0.307,-0.02158291
0.3072,-0.02066296
0.3074,-0.01921023
0.3076,-0.0179623
0.3078,-0.01537112
0.308,-0.0147297
0.3082,-0.01419403
0.3084,-0.01188336
0.3086,-0.009210413
0.3088,-0.00570792
0.309,-0.002953042
0.3092,-0.0003457266
0.3094,0.002931094
0.3096,0.005413806
0.3098,0.005885078
0.31,0.00568393
0.3102,0.008944947
0.3104,0.01238116
0.3106,0.01508931
0.3108,0.0151876
0.311,0.01519719
0.3112,0.01665818
0.3114,0.01944477
0.3116,0.02200397
0.3118,0.0244853
0.312,0.02507516
0.3122,0.02636603
0.3124,0.02641383
0.3126,0.02811509
0.3128,0.03045474
0.313,0.03130756
0.3132,0.03224066
0.3134,0.03303463
0.3136,0.03433437
0.3138,0.03453441
0.314,0.03468953
0.3142,0.03539192
0.3144,0.03409489
0.3146,0.03175497
0.3148,0.03200972
0.315,0.03170109
0.3152,0.02917234
0.3154,0.02815785
0.3156,0.02805051
0.3158,0.02962725
0.316,0.02949815
0.3162,0.02882924
0.3164,0.02690259
0.3166,0.02399073
0.3168,0.02184618
0.317,0.01992496
0.3172,0.01842795
0.3174,0.0149037
0.3176,0.01379764
0.3178,0.01364
0.318,0.01176028
0.3182,0.008620807
0.3184,0.00758514
0.3186,0.006674037
0.3188,0.002381968
0.319,0.0007297684
0.3192,-0.0006364424
0.3194,-0.001947987
0.3196,-0.004275471
0.3198,-0.00647364
0.32,-0.008401861
0.3202,-0.01104616
0.3204,-0.01173872
0.3206,-0.01188271
0.3208,-0.01364491
0.321,-0.01594469
0.3212,-0.01628533
0.3214,-0.0174647
0.3216,-0.01998042
0.3218,-0.02188544
0.322,-0.02259626
0.3222,-0.02397159
0.3224,-0.02441932
0.3226,-0.02443872
0.3228,-0.02723118
0.323,-0.02964891
0.3232,-0.03007638
0.3234,-0.02846261
0.3236,-0.02917909
0.3238,-0.03061611
0.324,-0.03101729
0.3242,-0.03129852
0.3244,-0.03153818
0.3246,-0.03276647
0.3248,-0.03260964
0.325,-0.03301375
0.3252,-0.0309861
0.3254,-0.02982735
0.3256,-0.02905445
0.3258,-0.02857034
0.326,-0.02850197
0.3262,-0.02744322
0.3264,-0.02705782
0.3266,-0.02472626
0.3268,-0.02382041
0.327,-0.02215482
0.3272,-0.0201066
0.3274,-0.01945497
0.3276,-0.01794283
0.3278,-0.01512479
0.328,-0.01162662
0.3282,-0.009113674
0.3284,-0.009559958
0.3286,-0.007401268
0.3288,-0.006281986
0.329,-0.003327097
0.3292,-0.001570684
0.3294,-0.0005147852
0.3296,0.000681006
0.3298,0.003259538
0.33,0.005766575
0.3302,0.007066841
0.3304,0.007921228
0.3306,0.009174769
0.3308,0.01065616
0.331,0.01127906
0.3312,0.01493257
0.3314,0.01787563
0.3316,0.02024189
0.3318,0.02258983
0.332,0.02434583
0.3322,0.02623416
0.3324,0.02614549
0.3326,0.02644573
0.3328,0.02608571
0.333,0.02706416
0.3332,0.02811046
0.3334,0.02885119
0.3336,0.02894208
0.3338,0.02896937
0.334,0.02989718
0.3342,0.02989666
0.3344,0.0301501
0.3346,0.02905754
0.3348,0.03027715
0.335,0.03033176
0.3352,0.03080887
0.3354,0.03134899
0.3356,0.03064846
0.3358,0.02890347
0.336,0.02883332
0.3362,0.02629034
0.3364,0.0258873
0.3366,0.02410274
0.3368,0.02086275
0.337,0.01968595
0.3372,0.0178652
0.3374,0.01767509
0.3376,0.01571359
0.3378,0.01453031
0.338,0.01257256
0.3382,0.01084784
0.3384,0.01054278
0.3386,0.01004062
0.3388,0.008125327
0.339,0.005382083
0.3392,0.00246506
0.3394,-0.0007104281
0.3396,-0.002103682
0.3398,-0.000633665
0.34,-0.001479535
0.3402,-0.003804414
0.3404,-0.007321422
0.3406,-0.009560484
0.3408,-0.009342352
0.341,-0.01181075
0.3412,-0.01350437
0.3414,-0.01449959
0.3416,-0.01552392
0.3418,-0.01776001
0.342,-0.02027003
0.3422,-0.02179464
0.3424,-0.02507012
0.3426,-0.02632752
0.3428,-0.02789062
0.343,-0.02864405
0.3432,-0.0297513
0.3434,-0.03072378
0.3436,-0.0315566
0.3438,-0.03157322
0.344,-0.03112153
0.3442,-0.03212891
0.3444,-0.03154477
0.3446,-0.0317019
0.3448,-0.03114349
0.345,-0.03071219
0.3452,-0.03207079
0.3454,-0.03186413
0.3456,-0.03177095
0.3458,-0.03065277
0.346,-0.03065978
0.3462,-0.03150227
0.3464,-0.0309434
0.3466,-0.03083521
0.3468,-0.02963538
0.347,-0.02693951
0.3472,-0.02394539
0.3474,-0.02314565
0.3476,-0.02097296
0.3478,-0.01970092
0.348,-0.02051765
0.3482,-0.01698732
0.3484,-0.01303422
0.3486,-0.01114956
0.3488,-0.008396123
0.349,-0.007230543
0.3492,-0.005752928
0.3494,-0.002483211
0.3496,-0.0007330032
0.3498,0.0009325203
0.35,0.00413375
0.3502,0.006857031
0.3504,0.008724321
0.3506,0.01217253
0.3508,0.01369562
0.351,0.01590816
0.3512,0.01589053
0.3514,0.01812193
0.3516,0.02183267
0.3518,0.02360735
0.352,0.02581588
0.3522,0.02544561
0.3524,0.02681714
0.3526,0.03013376
0.3528,0.03246236
0.353,0.03245018
0.3532,0.03387807
0.3534,0.03503184
0.3536,0.03448698
0.3538,0.03499949
0.354,0.03415256
0.3542,0.03517423
0.3544,0.03507944
0.3546,0.03342586
0.3548,0.03213692
0.355,0.03076503
0.3552,0.03251985
0.3554,0.03340891
0.3556,0.03300983
0.3558,0.0321812
0.356,0.03176891
0.3562,0.03015492
0.3564,0.02915542
0.3566,0.0285422
0.3568,0.02600509
0.357,0.02397614
0.3572,0.02230703
0.3574,0.02041111
0.3576,0.01695157
0.3578,0.01413763
0.358,0.01425114
0.3582,0.01290959
0.3584,0.01061447
0.3586,0.006976313
0.3588,0.002339774
0.359,-0.0005453538
0.3592,-0.001395778
0.3594,-0.001834166
0.3596,-0.001795381
0.3598,-0.001717388
0.36,-0.00234165
0.3602,-0.004989298
0.3604,-0.01001905
0.3606,-0.01283329
0.3608,-0.01435176
0.361,-0.01466376
0.3612,-0.01668738
0.3614,-0.01955087
0.3616,-0.02164752
0.3618,-0.02501677
0.362,-0.02776088
0.3622,-0.02948708
0.3624,-0.02965777
0.3626,-0.03009839
0.3628,-0.02995486
0.363,-0.03155658
0.3632,-0.03338273
0.3634,-0.03181716
0.3636,-0.03162454
0.3638,-0.0310155
0.364,-0.03101332
0.3642,-0.03055207
0.3644,-0.02860419
0.3646,-0.02891023
0.3648,-0.02995556
0.365,-0.02974435
0.3652,-0.03025326
0.3654,-0.03017668
0.3656,-0.02957979
0.3658,-0.02740777
0.366,-0.02738274
0.3662,-0.02559108
0.3664,-0.02436104
0.3666,-0.02445068
0.3668,-0.02381146
0.367,-0.02242967
0.3672,-0.0210868
0.3674,-0.01960863
0.3676,-0.01796556
0.3678,-0.01719349
0.368,-0.01449129
0.3682,-0.01430827
0.3684,-0.01195416
0.3686,-0.009153346
0.3688,-0.007009465
0.369,-0.004657245
0.3692,-0.002822325
0.3694,-0.001990618
0.3696,-0.00194902
0.3698,-5.33891e-05
0.37,0.002559752
0.3702,0.005441478
0.3704,0.007253794
0.3706,0.008400503
0.3708,0.01049299
0.371,0.01211031
0.3712,0.01455172
0.3714,0.01610713
0.3716,0.01783032
0.3718,0.01986688
0.372,0.02141408
0.3722,0.02312194
0.3724,0.0258742
0.3726,0.02712396
0.3728,0.02771493
0.373,0.02966828
0.3732,0.03196605
0.3734,0.03286016
0.3736,0.03279706
0.3738,0.03184865
0.374,0.0331587
0.3742,0.03307028
0.3744,0.03250337
0.3746,0.03338226
0.3748,0.03278077
0.375,0.03106205
0.3752,0.03056178
0.3754,0.03126603
0.3756,0.03094165
0.3758,0.03201242
0.376,0.03195076
0.3762,0.03163144
0.3764,0.03215313
0.3766,0.02981558
0.3768,0.02843288
0.377,0.02637296
0.3772,0.0241283
0.3774,0.02167221
0.3776,0.0211035
0.3778,0.02027482
0.378,0.0189878
0.3782,0.01702921
0.3784,0.01527648
0.3786,0.01265773
0.3788,0.009875088
0.379,0.007252613
0.3792,0.005806361
0.3794,0.004582886
0.3796,0.001529723
0.3798,-0.002550329
0.38,-0.005318786
0.3802,-0.006485426
0.3804,-0.00988217
0.3806,-0.01227769
0.3808,-0.0124491
0.381,-0.01395195
0.3812,-0.01400097
0.3814,-0.01517485
0.3816,-0.01740504
0.3818,-0.01970566
0.382,-0.02307237
0.3822,-0.0260078
0.3824,-0.02606651
0.3826,-0.02484633
0.3828,-0.02585003
0.383,-0.02742876
0.3832,-0.02998843
0.3834,-0.0302849
0.3836,-0.03117979
0.3838,-0.03161108
0.384,-0.03141139
0.3842,-0.03347552
0.3844,-0.03320075
0.3846,-0.03169981
0.3848,-0.030324
0.385,-0.03143931
0.3852,-0.03256802
0.3854,-0.03168742
0.3856,-0.03068227
0.3858,-0.03060959
0.386,-0.02967092
0.3862,-0.03095615
0.3864,-0.03153381
0.3866,-0.03011119
0.3868,-0.02795938
0.387,-0.02605668
0.3872,-0.02474114
0.3874,-0.02190303
0.3876,-0.02046998
0.3878,-0.01844407
0.388,-0.01693381
0.3882,-0.01376671
0.3884,-0.01143572
0.3886,-0.009763632
0.3888,-0.006972223
0.389,-0.005909172
0.3892,-0.003900156
0.3894,-0.001636091
0.3896,-0.0008636182
0.3898,-0.0009368604
0.39,-0.0002944149
0.3902,0.003199185
0.3904,0.005998838
0.3906,0.008540021
0.3908,0.01124372
0.391,0.01274998
0.3912,0.01487567
0.3914,0.01568115
0.3916,0.01797617
0.3918,0.02057128
0.392,0.0230508
0.3922,0.02416963
0.3924,0.02477536
0.3926,0.02759847
0.3928,0.03027599
0.393,0.03176094
0.3932,0.03156469
0.3934,0.03032764
0.3936,0.02901778
0.3938,0.02767517
0.394,0.02879293
0.3942,0.03069147
0.3944,0.03249542
0.3946,0.035046
0.3948,0.03430458
0.395,0.03344782
0.3952,0.03257046
0.3954,0.03193936
0.3956,0.03172375
0.3958,0.03105142
0.396,0.03098524
0.3962,0.0291031
0.3964,0.02979929
0.3966,0.02685078
0.3968,0.02385898
0.397,0.02179968
0.3972,0.0207988
0.3974,0.02026558
0.3976,0.01765363
0.3978,0.01654629
0.398,0.01499561
0.3982,0.01332417
0.3984,0.01132971
0.3986,0.009760405
0.3988,0.008222407
0.399,0.007248751
0.3992,0.006266905
0.3994,0.003768734
0.3996,0.001683174
0.3998,-0.001209955
0.4,-0.002562576
0.4002,-0.003676284
0.4004,-0.006191668
0.4006,-0.009426529
0.4008,-0.01129588
0.401,-0.01330614
0.4012,-0.01657942
0.4014,-0.01756129
0.4016,-0.01871903
0.4018,-0.02076684
0.402,-0.02079638
0.4022,-0.02286207
0.4024,-0.02455843
0.4026,-0.02656969
0.4028,-0.02774652
0.403,-0.02877458
0.4032,-0.03131
0.4034,-0.03077084
0.4036,-0.03043633
0.4038,-0.03162297
0.404,-0.03245676
0.4042,-0.03248313
0.4044,-0.03163771
0.4046,-0.02852971
0.4048,-0.02768943
0.405,-0.02902834
0.4052,-0.02881426
0.4054,-0.02791201
0.4056,-0.02772766
0.4058,-0.02756481
0.406,-0.02544502
0.4062,-0.02493756
0.4064,-0.02494721
0.4066,-0.0239551
0.4068,-0.02171529
0.407,-0.02009649
0.4072,-0.01894232
0.4074,-0.01751066
0.4076,-0.01749626
0.4078,-0.01504622
0.408,-0.01188855
0.4082,-0.01108552
0.4084,-0.01087904
0.4086,-0.008290124
0.4088,-0.00547073
0.409,-0.002518055
0.4092,-0.00174755
0.4094,-0.002478673
0.4096,-0.001627759
0.4098,0.0003834564
0.41,0.0008468542
0.4102,0.002577767
0.4104,0.005082229
0.4106,0.006808431
0.4108,0.007387814
0.411,0.009242226
0.4112,0.01076431
0.4114,0.01249079
0.4116,0.01355051
0.4118,0.01513915
0.412,0.01787843
0.4122,0.01844527
0.4124,0.02016906
0.4126,0.02194703
0.4128,0.02291944
0.413,0.02429491
0.4132,0.02549643
0.4134,0.0267035
0.4136,0.026376
0.4138,0.0260508
0.414,0.02811678
0.4142,0.03161125
0.4144,0.03064094
0.4146,0.03093998
0.4148,0.0305477
0.415,0.03168562
0.4152,0.03225117
0.4154,0.03011006
0.4156,0.03043401
0.4158,0.03069793
0.416,0.02810544
0.4162,0.027414
0.4164,0.02832823
0.4166,0.02997667
0.4168,0.02859994
0.417,0.02511993
0.4172,0.02275373
0.4174,0.02190983
0.4176,0.02014504
0.4178,0.0189824
0.418,0.01727251
0.4182,0.01438945
0.4184,0.0118954
0.4186,0.01139886
0.4188,0.009861788
0.419,0.009178393
0.4192,0.006863488
0.4194,0.005073593
0.4196,0.003485637
0.4198,0.0003912247
0.42,-0.002711653
0.4202,-0.007373511
0.4204,-0.0111828
0.4206,-0.01372916
0.4208,-0.01491117
0.421,-0.01644005
0.4212,-0.01764122
0.4214,-0.01643197
0.4216,-0.01786736
0.4218,-0.02083873
0.422,-0.02292584
0.4222,-0.02418102
0.4224,-0.0258342
0.4226,-0.02655472
0.4228,-0.02654344
0.423,-0.02683236
0.4232,-0.02845112
0.4234,-0.03050374
0.4236,-0.03030783
0.4238,-0.03139156
0.424,-0.03036392
0.4242,-0.03008999
0.4244,-0.030221
0.4246,-0.02955988
0.4248,-0.02897254
0.425,-0.02887941
0.4252,-0.02818752
0.4254,-0.02608092
0.4256,-0.02716602
0.4258,-0.02885249
0.426,-0.02676878
0.4262,-0.02653548
0.4264,-0.0271803
0.4266,-0.02634614
0.4268,-0.02412591
0.427,-0.02310916
0.4272,-0.02058223
0.4274,-0.01762425
0.4276,-0.01658669
0.4278,-0.01599375
0.428,-0.01441786
0.4282,-0.0100074
0.4284,-0.007275071
0.4286,-0.00718684
0.4288,-0.006029099
0.429,-0.003722372
0.4292,-0.0006918584
0.4294,0.0008010882
0.4296,0.003480695
0.4298,0.00469909
0.43,0.005696496
0.4302,0.005655721
0.4304,0.005255119
0.4306,0.007925663
0.4308,0.01125617
0.431,0.01365894
0.4312,0.01450675
0.4314,0.01537942
0.4316,0.01766738
0.4318,0.01991264
0.432,0.02299469
0.4322,0.02598044
0.4324,0.02701179
0.4326,0.02702905
0.4328,0.02967999
0.433,0.03080899
0.4332,0.03072556
0.4334,0.03140896
0.4336,0.03218062
0.4338,0.03233036
0.434,0.0313465
0.4342,0.03187821
0.4344,0.03107641
0.4346,0.03072113
0.4348,0.03018516
0.435,0.02943442
0.4352,0.03030268
0.4354,0.02946373
0.4356,0.02952104
0.4358,0.02754541
0.436,0.02595307
0.4362,0.02449496
0.4364,0.02382001
0.4366,0.02397306
0.4368,0.0231171
0.437,0.02113389
0.4372,0.01908809
0.4374,0.01893275
0.4376,0.01715675
0.4378,0.01542014
0.438,0.01427054
0.4382,0.01165269
0.4384,0.008285465
0.4386,0.00458181
0.4388,0.001080959
0.439,-0.001072531
0.4392,-0.002859307
0.4394,-0.00668614
0.4396,-0.008581122
0.4398,-0.01032833
0.44,-0.01266204
0.4402,-0.01149746
0.4404,-0.01096881
0.4406,-0.01130002
0.4408,-0.01311099
0.441,-0.01472312
0.4412,-0.01724978
0.4414,-0.01934087
0.4416,-0.01991555
0.4418,-0.02112665
0.442,-0.02246642
0.4422,-0.02460509
0.4424,-0.0254201
0.4426,-0.02618791
0.4428,-0.02695
0.443,-0.0282421
0.4432,-0.02840578
0.4434,-0.02861636
0.4436,-0.0299332
0.4438,-0.03023361
0.444,-0.03160571
0.4442,-0.03199689
0.4444,-0.032501
0.4446,-0.03226423
0.4448,-0.03413567
0.445,-0.03310064
0.4452,-0.0308754
0.4454,-0.03083336
0.4456,-0.03149737
0.4458,-0.02987923
0.446,-0.02776233
0.4462,-0.02636152
0.4464,-0.02599729
0.4466,-0.02484502
0.4468,-0.02193972
0.447,-0.02022366
0.4472,-0.02013239
0.4474,-0.01920817
0.4476,-0.01770669
0.4478,-0.0154786
0.448,-0.01348325
0.4482,-0.01043854
0.4484,-0.008608275
0.4486,-0.005161401
0.4488,-0.002742026
0.449,-0.002217674
0.4492,-0.000364666
0.4494,0.001536464
0.4496,0.001829234
0.4498,0.002768801
0.45,0.004966903
0.4502,0.007637558
0.4504,0.009349337
0.4506,0.01120731
0.4508,0.01378647
0.451,0.01552218
0.4512,0.01596784
0.4514,0.017012
0.4516,0.02020805
0.4518,0.02177803
0.452,0.02348922
0.4522,0.02453021
0.4524,0.02615928
0.4526,0.02715401
0.4528,0.02755054
0.453,0.02957619
0.4532,0.02954297
0.4534,0.03052199
0.4536,0.03063274
0.4538,0.03128651
0.454,0.032164
0.4542,0.0320987
0.4544,0.03237408
0.4546,0.03103514
0.4548,0.03181035
0.455,0.03094761
0.4552,0.02973654
0.4554,0.0292231
0.4556,0.02945182
0.4558,0.03012192
0.456,0.02853597
0.4562,0.02688893
0.4564,0.02543255
0.4566,0.02528669
0.4568,0.02465177
0.457,0.02333485
0.4572,0.02168668
0.4574,0.02134399
0.4576,0.0215517
0.4578,0.01807357
0.458,0.01509725
0.4582,0.01328563
0.4584,0.01285677
0.4586,0.00953834
0.4588,0.006106067
0.459,0.005057514
0.4592,0.00141653
0.4594,-0.0006523759
0.4596,-0.0008182973
0.4598,-0.00263406
0.46,-0.003392286
0.4602,-0.006626325
0.4604,-0.009981243
0.4606,-0.01116953
0.4608,-0.01404418
0.461,-0.01574508
0.4612,-0.01816443
0.4614,-0.01889315
0.4616,-0.02189345
0.4618,-0.02452488
0.462,-0.02610226
0.4622,-0.02904329
0.4624,-0.03100286
0.4626,-0.02999491
0.4628,-0.02994526
0.463,-0.03268307
0.4632,-0.03344216
0.4634,-0.03307309
0.4636,-0.03238361
0.4638,-0.03110068
0.464,-0.0303303
0.4642,-0.02915417
0.4644,-0.03094941
0.4646,-0.030237
0.4648,-0.02988641
0.465,-0.02947
0.4652,-0.02905268
0.4654,-0.02857941
0.4656,-0.02742258
0.4658,-0.02652095
0.466,-0.02528201
0.4662,-0.02580438
0.4664,-0.02499728
0.4666,-0.02441268
0.4668,-0.0232484
0.467,-0.01994514
0.4672,-0.01885203
0.4674,-0.01755959
0.4676,-0.01577187
0.4678,-0.01352186
0.468,-0.01286813
0.4682,-0.01022821
0.4684,-0.007723201
0.4686,-0.00538774
0.4688,-0.003660904
0.469,-0.001944538
0.4692,0.0001577244
0.4694,0.0003244381
0.4696,0.002096367
0.4698,0.001921616
0.47,0.00294163
0.4702,0.005674031
0.4704,0.008042695
0.4706,0.01074789
0.4708,0.01354058
0.471,0.01733034
0.4712,0.0171033
0.4714,0.01853844
0.4716,0.02090304
0.4718,0.02339269
0.472,0.02578212
0.4722,0.0287242
0.4724,0.0323155
0.4726,0.03399915
0.4728,0.03588904
0.473,0.03674226
0.4732,0.03605416
0.4734,0.03418138
0.4736,0.03571633
0.4738,0.03722861
0.474,0.03707107
0.4742,0.03700434
0.4744,0.03636308
0.4746,0.03760623
0.4748,0.03796148
0.475,0.0402781
0.4752,0.03984677
0.4754,0.03809033
0.4756,0.03779148
0.4758,0.0368769
0.476,0.03439547
0.4762,0.0337384
0.4764,0.03483801
0.4766,0.03299967
0.4768,0.02850422
0.477,0.02600717
0.4772,0.02492765
0.4774,0.02388704
0.4776,0.02404692
0.4778,0.02537366
0.478,0.0243611
0.4782,0.02190829
0.4784,0.01797496
0.4786,0.01551024
0.4788,0.0134459
0.479,0.01229594
0.4792,0.0101974
0.4794,0.006157327
0.4796,0.001967869
0.4798,-0.002957821
0.48,-0.005463126
0.4802,-0.00937272
0.4804,-0.01363588
0.4806,-0.01929943
0.4808,-0.02425122
0.481,-0.0278256
0.4812,-0.03156128
0.4814,-0.03360206
0.4816,-0.03914776
0.4818,-0.04343521
0.482,-0.04712055
0.4822,-0.0512075
0.4824,-0.05290266
0.4826,-0.05681439
0.4828,-0.05851554
0.483,-0.05899581
0.4832,-0.05878809
0.4834,-0.05638012
0.4836,-0.05673094
0.4838,-0.05583364
0.484,-0.05544065
0.4842,-0.05531943
0.4844,-0.05453318
0.4846,-0.04967527
0.4848,-0.04640031
0.485,-0.04255882
0.4852,-0.03798224
0.4854,-0.03540399
0.4856,-0.03293559
0.4858,-0.03085206
0.486,-0.02710058
0.4862,-0.02571585
0.4864,-0.02437206
0.4866,-0.02403955
0.4868,-0.02010966
0.487,-0.01775255
0.4872,-0.01700121
0.4874,-0.01596492
0.4876,-0.01368486
0.4878,-0.01055831
0.488,-0.01067595
0.4882,-0.00796341
0.4884,-0.005756825
0.4886,-0.004516471
0.4888,-0.002328274
0.489,-0.002037298
0.4892,-0.0002326315
0.4894,0.001031441
0.4896,0.002463159
0.4898,0.003938044
0.49,0.00740687
0.4902,0.009740303
0.4904,0.01124318
0.4906,0.01301519
0.4908,0.01416263
0.491,0.0155128
0.4912,0.01807549
0.4914,0.02048604
0.4916,0.02223225
0.4918,0.02403295
0.492,0.02481695
0.4922,0.02495716
0.4924,0.0262998
0.4926,0.02723937
0.4928,0.02897927
0.493,0.03144218
0.4932,0.03359084
0.4934,0.03489558
0.4936,0.03445998
0.4938,0.03409932
0.494,0.0326908
0.4942,0.03462328
0.4944,0.0361479
0.4946,0.03708301
0.4948,0.03488748
0.495,0.03305123
0.4952,0.03129869
0.4954,0.03061115
0.4956,0.03084563
0.4958,0.02750398
0.496,0.02801762
0.4962,0.02807391
0.4964,0.02682923
0.4966,0.02720218
0.4968,0.02650157
0.497,0.02476756
0.4972,0.0220539
0.4974,0.02163747
0.4976,0.02040617
0.4978,0.01846209
0.498,0.01569975
0.4982,0.01385045
0.4984,0.01335409
0.4986,0.01102465
0.4988,0.008158075
0.499,0.004648793
0.4992,0.003734085
0.4994,0.002749329
0.4996,0.001417822
0.4998,0.001070214
0.5,-0.0001812756
0.5002,-0.001770724
0.5004,-0.005697897
0.5006,-0.007595962
0.5008,-0.007761352
0.501,-0.008716179
0.5012,-0.01025028
0.5014,-0.0126327
0.5016,-0.01520966
0.5018,-0.01767455
0.502,-0.01889024
0.5022,-0.01975498
0.5024,-0.02102011
0.5026,-0.02208331
0.5028,-0.02397416
0.503,-0.02529262
0.5032,-0.02531425
0.5034,-0.0253961
0.5036,-0.02431167
0.5038,-0.02316242
0.504,-0.02455096
0.5042,-0.02848756
0.5044,-0.0308846
0.5046,-0.03108015
0.5048,-0.0292353
0.505,-0.03016985
0.5052,-0.03088015
0.5054,-0.03169023
0.5056,-0.0324364
0.5058,-0.03169385
0.506,-0.03067857
0.5062,-0.02892144
0.5064,-0.02798911
0.5066,-0.02881532
0.5068,-0.02887661
0.507,-0.02830166
0.5072,-0.02657357
0.5074,-0.02392691
0.5076,-0.02299042
0.5078,-0.02218535
0.508,-0.01931565
0.5082,-0.01652052
0.5084,-0.01512318
0.5086,-0.01344621
0.5088,-0.01067085
0.509,-0.008598968
0.5092,-0.007202163
0.5094,-0.004641703
0.5096,-0.001914321
0.5098,-0.0008295272
0.51,0.0004969778
0.5102,0.0041769
0.5104,0.007746003
0.5106,0.01030919
0.5108,0.01174687
0.511,0.01277791
0.5112,0.01354584
0.5114,0.01604302
0.5116,0.01724326
0.5118,0.01989712
0.512,0.02109401
0.5122,0.02050439
0.5124,0.02259785
0.5126,0.02457787
0.5128,0.02748741
0.513,0.0293781
0.5132,0.03025952
0.5134,0.03026393
0.5136,0.02980809
0.5138,0.03042948
0.514,0.03208659
0.5142,0.03263822
0.5144,0.03294811
0.5146,0.0346153
0.5148,0.03456318
0.515,0.03471283
0.5152,0.03386475
0.5154,0.03154682
0.5156,0.03002197
0.5158,0.02942551
0.516,0.02913079
0.5162,0.02806251
0.5164,0.02830526
0.5166,0.02731044
0.5168,0.02510796
0.517,0.02609626
0.5172,0.02489771
0.5174,0.02247576
0.5176,0.01959003
0.5178,0.01606571
0.518,0.01386669
0.5182,0.01208184
0.5184,0.01231232
0.5186,0.009507323
0.5188,0.007219238
0.519,0.004883814
0.5192,0.001828796
0.5194,-0.001592725
0.5196,-0.004586313
0.5198,-0.006797697
0.52,-0.008989154
0.5202,-0.01049498
0.5204,-0.01209631
0.5206,-0.01352948
0.5208,-0.01332825
0.521,-0.01283407
0.5212,-0.01312654
0.5214,-0.01430416
0.5216,-0.0156989
0.5218,-0.01637924
0.522,-0.01675388
0.5222,-0.01688099
0.5224,-0.01722207
0.5226,-0.01718289
0.5228,-0.01813651
0.523,-0.01939215
0.5232,-0.02034673
0.5234,-0.01947613
0.5236,-0.01954475
0.5238,-0.01914906
0.524,-0.02067917
0.5242,-0.02169098
0.5244,-0.02292723
0.5246,-0.02377933
0.5248,-0.025021
0.525,-0.02569397
0.5252,-0.02550693
0.5254,-0.02611049
0.5256,-0.02522617
0.5258,-0.02419792
0.526,-0.02341213
0.5262,-0.02442266
0.5264,-0.02573314
0.5266,-0.02577839
0.5268,-0.02626143
0.527,-0.02615525
0.5272,-0.02603293
0.5274,-0.02489256
0.5276,-0.02289002
0.5278,-0.02002518
0.528,-0.01696694
0.5282,-0.01526785
0.5284,-0.01295404
0.5286,-0.01072903
0.5288,-0.008681001
0.529,-0.007288921
0.5292,-0.006937421
0.5294,-0.008120403
0.5296,-0.006991435
0.5298,-0.006626306
0.53,-0.00340326
0.5302,0.001144134
0.5304,0.004354492
0.5306,0.00609461
0.5308,0.006626303
0.531,0.009228796
0.5312,0.009924546
0.5314,0.01082878
0.5316,0.01126781
0.5318,0.01514723
0.532,0.01888722
0.5322,0.01901721
0.5324,0.01976002
0.5326,0.02160702
0.5328,0.02252398
0.533,0.02367504
0.5332,0.02477635
0.5334,0.02559531
0.5336,0.02729436
0.5338,0.02718734
0.534,0.02748343
0.5342,0.02817256
0.5344,0.02963625
0.5346,0.03021031
0.5348,0.03158377
0.535,0.03202048
0.5352,0.03180592
0.5354,0.03209651
0.5356,0.02894505
0.5358,0.02794503
0.536,0.02813524
0.5362,0.02654857
0.5364,0.02577907
0.5366,0.02381381
0.5368,0.02346966
0.537,0.02307015
0.5372,0.02240522
0.5374,0.01994636
0.5376,0.01778812
0.5378,0.01668349
0.538,0.01574141
0.5382,0.0154218
0.5384,0.01404268
0.5386,0.01180908
0.5388,0.010176
0.539,0.009317103
0.5392,0.005644709
0.5394,0.005244651
0.5396,0.005931436
0.5398,0.00591988
0.54,0.003575272
0.5402,0.001662899
0.5404,-0.001316798
0.5406,-0.004776303
0.5408,-0.008512079
0.541,-0.01219778
0.5412,-0.0148477
0.5414,-0.0171616
0.5416,-0.01839437
0.5418,-0.01894168
0.542,-0.01978118
0.5422,-0.02234058
0.5424,-0.02468658
0.5426,-0.02413216
0.5428,-0.02527782
0.543,-0.0270899
0.5432,-0.02789801
0.5434,-0.02788783
0.5436,-0.03036641
0.5438,-0.03227919
0.544,-0.03171544
0.5442,-0.03135852
0.5444,-0.03225331
0.5446,-0.03166954
0.5448,-0.03125707
0.545,-0.0314892
0.5452,-0.03055578
0.5454,-0.02806737
0.5456,-0.02506177
0.5458,-0.02549722
0.546,-0.02505086
0.5462,-0.02408944
0.5464,-0.0237195
0.5466,-0.0236828
0.5468,-0.02211738
0.547,-0.01966287
0.5472,-0.01920152
0.5474,-0.01631148
0.5476,-0.01328466
0.5478,-0.01049958
0.548,-0.009916629
0.5482,-0.007961337
0.5484,-0.007445937
0.5486,-0.006473472
0.5488,-0.006193742
0.549,-0.00560226
0.5492,-0.002667057
0.5494,-0.001415457
0.5496,-0.0009071836
0.5498,-0.0003249508
0.55,0.001417951
0.5502,0.004088347
0.5504,0.006378074
0.5506,0.008352913
0.5508,0.01118395
0.551,0.01284301
0.5512,0.01509503
0.5514,0.01767248
0.5516,0.02079069
0.5518,0.02120081
0.552,0.0227786
0.5522,0.02433245
0.5524,0.02540764
0.5526,0.02565672
0.5528,0.02572476
0.553,0.02668867
0.5532,0.02554468
0.5534,0.02521671
0.5536,0.02539255
0.5538,0.02465882
0.554,0.0239779
0.5542,0.02574652
0.5544,0.02767594
0.5546,0.02849478
0.5548,0.02802472
0.555,0.02744525
0.5552,0.02674338
0.5554,0.02708136
0.5556,0.02816228
0.5558,0.02744864
0.556,0.02716236
0.5562,0.0256095
0.5564,0.02591369
0.5566,0.02551203
0.5568,0.02621245
0.557,0.02283781
0.5572,0.02170887
0.5574,0.01905478
0.5576,0.01692222
0.5578,0.01613454
0.558,0.01529322
0.5582,0.01354164
0.5584,0.009858479
0.5586,0.006274357
0.5588,0.003282282
0.559,0.002091526
0.5592,0.001267142
0.5594,-0.0006708492
0.5596,-0.003159723
0.5598,-0.004298816
0.56,-0.006444854
0.5602,-0.007315197
0.5604,-0.008520356
0.5606,-0.009694407
0.5608,-0.009733045
0.561,-0.009458074
0.5612,-0.00815331
0.5614,-0.01016993
0.5616,-0.01134472
0.5618,-0.0107271
0.562,-0.01092539
0.5622,-0.01216114
0.5624,-0.0152398
0.5626,-0.01715985
0.5628,-0.01989395
0.563,-0.01966512
0.5632,-0.02166692
0.5634,-0.02452681
0.5636,-0.02530872
0.5638,-0.02599739
0.564,-0.0284945
0.5642,-0.0283638
0.5644,-0.02479982
0.5646,-0.02251808
0.5648,-0.01824826
0.565,-0.01642675
0.5652,-0.01617311
0.5654,-0.01846165
0.5656,-0.02014009
0.5658,-0.01950967
0.566,-0.01848262
0.5662,-0.01713759
0.5664,-0.01838403
0.5666,-0.0190491
0.5668,-0.01991164
0.567,-0.01859115
0.5672,-0.01641086
0.5674,-0.01579478
0.5676,-0.01533654
0.5678,-0.01373469
0.568,-0.01279928
0.5682,-0.01376979
0.5684,-0.01458848
0.5686,-0.01282083
0.5688,-0.01043649
0.569,-0.009204629
0.5692,-0.008019909
0.5694,-0.006116289
0.5696,-0.005566804
0.5698,-0.003926266
0.57,-0.00251752
0.5702,-0.001735062
0.5704,0.001556367
0.5706,0.004014875
0.5708,0.008129071
0.571,0.009498976
0.5712,0.01168603
0.5714,0.01244817
0.5716,0.01430918
0.5718,0.01641012
0.572,0.01759174
0.5722,0.01891014
0.5724,0.02048896
0.5726,0.02163014
0.5728,0.02218843
0.573,0.02146757
0.5732,0.01995752
0.5734,0.01948576
0.5736,0.01855578
0.5738,0.01704245
0.574,0.01480116
0.5742,0.01359902
0.5744,0.01295064
0.5746,0.01084305
0.5748,0.01118052
0.575,0.01097098
0.5752,0.01117793
0.5754,0.01023052
0.5756,0.01057423
0.5758,0.0104552
0.576,0.00973423
0.5762,0.009589257
0.5764,0.0111139
0.5766,0.01576534
0.5768,0.01583281
0.577,0.01698807
0.5772,0.01706389
0.5774,0.01597548
0.5776,0.01527257
0.5778,0.01381136
0.578,0.01353975
0.5782,0.01311329
0.5784,0.01373247
0.5786,0.0119638
0.5788,0.009053417
0.579,0.007579857
0.5792,0.005325315
0.5794,0.003329143
0.5796,0.001030558
0.5798,-0.0006074175
0.58,-0.003226854
0.5802,-0.005169566
0.5804,-0.00738166
0.5806,-0.008182683
0.5808,-0.009154147
0.581,-0.01090065
0.5812,-0.01090612
0.5814,-0.01141082
0.5816,-0.01306069
0.5818,-0.01452731
0.582,-0.01354328
0.5822,-0.01316611
0.5824,-0.01629603
0.5826,-0.01797228
0.5828,-0.01888047
0.583,-0.01856347
0.5832,-0.01892287
0.5834,-0.01785697
0.5836,-0.017951
0.5838,-0.01824068
0.584,-0.01882327
0.5842,-0.02011793
0.5844,-0.02046859
0.5846,-0.02012386
0.5848,-0.02164747
0.585,-0.02232105
0.5852,-0.0220777
0.5854,-0.02208533
0.5856,-0.02225339
0.5858,-0.02045392
0.586,-0.01928007
0.5862,-0.01868749
0.5864,-0.01930072
0.5866,-0.01867907
0.5868,-0.01653973
0.587,-0.01535693
0.5872,-0.01385739
0.5874,-0.01327373
0.5876,-0.01259072
0.5878,-0.01167485
0.588,-0.01288731
0.5882,-0.01192086
0.5884,-0.009606743
0.5886,-0.009035148
0.5888,-0.008394804
0.589,-0.007820509
0.5892,-0.007356221
0.5894,-0.005384604
0.5896,-0.004967765
0.5898,-0.004819085
0.59,-0.004611635
0.5902,-0.002576437
0.5904,-0.0004433047
0.5906,0.0008444338
0.5908,0.003892243
0.591,0.006299371
0.5912,0.008930097
0.5914,0.0097779
0.5916,0.01222352
0.5918,0.01537366
0.592,0.01803449
0.5922,0.01931949
0.5924,0.02109084
0.5926,0.02297639
0.5928,0.02512821
0.593,0.02712791
0.5932,0.02959038
0.5934,0.0329027
0.5936,0.03248233
0.5938,0.03192346
0.594,0.03260248
0.5942,0.03329308
0.5944,0.0339039
0.5946,0.03174036
0.5948,0.03088898
0.595,0.03162682
0.5952,0.03239243
0.5954,0.03157961
0.5956,0.03139699
0.5958,0.02992658
0.596,0.0259688
0.5962,0.02426832
0.5964,0.02418414
0.5966,0.02468939
0.5968,0.02392503
0.597,0.02307021
0.5972,0.01978557
0.5974,0.01922019
0.5976,0.01662305
0.5978,0.01377501
0.598,0.0131483
0.5982,0.01095642
0.5984,0.008535025
0.5986,0.009144336
0.5988,0.00951445
0.599,0.008744139
0.5992,0.009264073
0.5994,0.00852034
0.5996,0.006671181
0.5998,0.005606552
0.6,0.002023374
0.6002,-0.001081259
0.6004,-0.003350884
0.6006,-0.006423593
0.6008,-0.008874507
0.601,-0.0113205
0.6012,-0.01260072
0.6014,-0.01396691
0.6016,-0.01614085
0.6018,-0.01751669
0.602,-0.01756552
0.6022,-0.01916047
0.6024,-0.02002434
0.6026,-0.02181631
0.6028,-0.02257675
0.603,-0.0255051
0.6032,-0.02955339
0.6034,-0.03127082
0.6036,-0.03178429
0.6038,-0.03187896
0.604,-0.03509442
0.6042,-0.03619957
0.6044,-0.03689104
0.6046,-0.03776698
0.6048,-0.03916641
0.605,-0.04075128
0.6052,-0.04326775
0.6054,-0.0455499
0.6056,-0.04546492
0.6058,-0.04180571
0.606,-0.03809918
0.6062,-0.03380167
0.6064,-0.0279943
0.6066,-0.02488433
0.6068,-0.01990076
0.607,-0.01345561
0.6072,-0.007273694
0.6074,0.001434695
0.6076,0.008760885
0.6078,0.01388439
0.608,0.01978276
0.6082,0.02455023
0.6084,0.03131191
0.6086,0.0360213
0.6088,0.03828425
0.609,0.03856485
0.6092,0.03599983
0.6094,0.03435364
0.6096,0.03434236
0.6098,0.0346834
0.61,0.03507978
0.6102,0.03572559
0.6104,0.03459682
0.6106,0.03484406
0.6108,0.03384395
0.611,0.03379857
0.6112,0.0333515
0.6114,0.03078095
0.6116,0.02769571
0.6118,0.02382287
0.612,0.02012063
0.6122,0.01789092
0.6124,0.01717888
0.6126,0.01512086
0.6128,0.01377082
0.613,0.01168077
0.6132,0.009736062
0.6134,0.007738792
0.6136,0.006028171
0.6138,0.005909014
0.614,0.005157714
0.6142,0.005264774
0.6144,0.004696314
0.6146,0.003871616
0.6148,0.002562409
0.615,0.002126189
0.6152,-5.020373e-05
0.6154,-0.004041782
0.6156,-0.007712165
0.6158,-0.01153301
0.616,-0.01168855
0.6162,-0.0113431
0.6164,-0.0133808
0.6166,-0.01679178
0.6168,-0.02002225
0.617,-0.0248161
0.6172,-0.02731678
0.6174,-0.02767629
0.6176,-0.02688393
0.6178,-0.0257355
0.618,-0.0249503
0.6182,-0.0237651
0.6184,-0.02377673
0.6186,-0.02128358
0.6188,-0.01820873
0.619,-0.01564176
0.6192,-0.012606
0.6194,-0.01105469
0.6196,-0.01075131
0.6198,-0.01011561
0.62,-0.01041007
0.6202,-0.01035619
0.6204,-0.01040014
0.6206,-0.009957478
0.6208,-0.008965081
0.621,-0.007274849
0.6212,-0.007508807
0.6214,-0.008929553
0.6216,-0.01067473
0.6218,-0.01130561
0.622,-0.01185226
0.6222,-0.01205757
0.6224,-0.01321113
0.6226,-0.01712477
0.6228,-0.01812847
0.623,-0.01874869
0.6232,-0.01991499
0.6234,-0.020496
0.6236,-0.02062423
0.6238,-0.02193009
0.624,-0.02298418
0.6242,-0.02280667
0.6244,-0.02484386
0.6246,-0.02520682
0.6248,-0.02533814
0.625,-0.02368085
0.6252,-0.02036542
0.6254,-0.01949967
0.6256,-0.020423
0.6258,-0.02190551
0.626,-0.01970934
0.6262,-0.01838861
0.6264,-0.0170942
0.6266,-0.01627283
0.6268,-0.01519605
0.627,-0.01340687
0.6272,-0.01466689
0.6274,-0.01250088
0.6276,-0.01031552
0.6278,-0.008300798
0.628,-0.006704655
0.6282,-0.004309698
0.6284,-0.00322333
0.6286,-0.003066596
0.6288,-0.0003006418
0.629,0.001358802
0.6292,0.004359161
0.6294,0.005767267
0.6296,0.00775761
0.6298,0.008284851
0.63,0.009025036
0.6302,0.01256717
0.6304,0.01524636
0.6306,0.01864542
0.6308,0.02031886
0.631,0.02254269
0.6312,0.02491761
0.6314,0.0265833
0.6316,0.02907554
0.6318,0.03224519
0.632,0.03326505
0.6322,0.03280661
0.6324,0.0333112
0.6326,0.03369819
0.6328,0.03617435
0.633,0.03659802
0.6332,0.03721955
0.6334,0.03861696
0.6336,0.03926602
0.6338,0.03767893
0.634,0.03617679
0.6342,0.03740645
0.6344,0.0373757
0.6346,0.03662943
0.6348,0.03551875
0.635,0.03520693
0.6352,0.0342929
0.6354,0.03326766
0.6356,0.03166543
0.6358,0.03060813
0.636,0.03038084
0.6362,0.02958023
0.6364,0.02859269
0.6366,0.02733148
0.6368,0.02547668
0.637,0.02186156
0.6372,0.01984376
0.6374,0.01776573
0.6376,0.0151607
0.6378,0.01301513
0.638,0.01084575
0.6382,0.009180782
0.6384,0.007035824
0.6386,0.003972101
0.6388,0.00175709
0.639,-0.0005872609
0.6392,-0.002329878
0.6394,-0.005815294
0.6396,-0.006716501
0.6398,-0.009300959
0.64,-0.01185163
0.6402,-0.01522129
0.6404,-0.01783688
0.6406,-0.02100159
0.6408,-0.02356614
0.641,-0.02315814
0.6412,-0.0234583
0.6414,-0.02348813
0.6416,-0.0235004
0.6418,-0.02353477
0.642,-0.02329238
0.6422,-0.02440613
0.6424,-0.0224051
0.6426,-0.01730695
0.6428,-0.01048133
0.643,-0.002637077
0.6432,0.007911576
0.6434,0.0206607
0.6436,0.0287724
0.6438,0.03220667
0.644,0.03306719
0.6442,0.03112671
0.6444,0.02416147
0.6446,0.01650668
0.6448,0.009642816
0.645,0.004130762
0.6452,0.0002130334
0.6454,-0.003176162
0.6456,-0.004784003
0.6458,-0.005195733
0.646,-0.00289828
0.6462,-0.0008856956
0.6464,0.002927178
0.6466,0.007582136
0.6468,0.0114598
0.647,0.01718293
0.6472,0.01940095
0.6474,0.02175813
0.6476,0.02208715
0.6478,0.01715441
0.648,0.01040947
0.6482,0.005979343
0.6484,0.003655708
0.6486,0.00473431
0.6488,0.007541828
0.649,0.01157339
0.6492,0.01725154
0.6494,0.02636766
0.6496,0.03520835
0.6498,0.04378839
0.65,0.05416197
0.6502,0.06394386
0.6504,0.07224541
0.6506,0.0773413
0.6508,0.08193773
0.651,0.08206201
0.6512,0.08043905
0.6514,0.07325917
0.6516,0.06462006
0.6518,0.05291627
0.652,0.04312965
0.6522,0.0324965
0.6524,0.02304791
0.6526,0.01665178
0.6528,0.01168624
0.653,0.00615684
0.6532,0.00137679
0.6534,-0.005506307
0.6536,-0.01320561
0.6538,-0.01796138
0.654,-0.02461282
0.6542,-0.03115345
0.6544,-0.0377038
0.6546,-0.04480149
0.6548,-0.05120541
0.655,-0.05663688
0.6552,-0.06282455
0.6554,-0.0684388
0.6556,-0.07481631
0.6558,-0.07884388
0.656,-0.08418889
0.6562,-0.08937445
0.6564,-0.09170274
0.6566,-0.09427507
0.6568,-0.09715307
0.657,-0.1013669
0.6572,-0.10392
0.6574,-0.1068531
0.6576,-0.108554
0.6578,-0.1100082
0.658,-0.113203
0.6582,-0.1127067
0.6584,-0.1091261
0.6586,-0.1076012
0.6588,-0.1042132
0.659,-0.09972119
0.6592,-0.09602141
0.6594,-0.09187302
0.6596,-0.08814149
0.6598,-0.08300523
0.66,-0.07765262
0.6602,-0.07279076
0.6604,-0.06931785
0.6606,-0.06334234
0.6608,-0.05455165
0.661,-0.0423478
0.6612,-0.03275537
0.6614,-0.02722503
0.6616,-0.02217021
0.6618,-0.01817745
0.662,-0.01564844
0.6622,-0.01174208
0.6624,-0.008031142
0.6626,-0.004379994
0.6628,-0.002744081
0.663,-0.002131307
0.6632,-2.285629e-06
0.6634,0.001071513
0.6636,0.003894486
0.6638,0.004899481
0.664,0.00544395
0.6642,0.005466498
0.6644,0.005916675
0.6646,0.005665303
0.6648,0.003826545
0.665,0.003123204
0.6652,0.003536988
0.6654,0.004236182
0.6656,0.002715516
0.6658,0.001400851
0.666,0.002759072
0.6662,0.003288084
0.6664,0.003701561
0.6666,0.005067443
0.6668,0.006925522
0.667,0.008438677
0.6672,0.009403417
0.6674,0.01157949
0.6676,0.01666072
0.6678,0.022441
0.668,0.02783737
0.6682,0.03215764
0.6684,0.03734508
0.6686,0.04141
0.6688,0.0457566
0.669,0.05021067
0.6692,0.05175284
0.6694,0.05387192
0.6696,0.05371061
0.6698,0.05235352
0.67,0.05075509
0.6702,0.04939105
0.6704,0.04723664
0.6706,0.04612105
0.6708,0.04621355
0.671,0.05381265
0.6712,0.08050083
0.6714,0.1292752
0.6716,0.1892009
0.6718,0.246842
0.672,0.2869614
0.6722,0.3049769
0.6724,0.3101045
0.6726,0.3073311
0.6728,0.2983103
0.673,0.2796012
0.6732,0.2573445
0.6734,0.2323958
0.6736,0.2084433
0.6738,0.1841128
0.674,0.1613274
0.6742,0.1390893
0.6744,0.1173589
0.6746,0.09670755
0.6748,0.07749238
0.675,0.06129497
0.6752,0.04753925
0.6754,0.0378566
0.6756,0.02900615
0.6758,0.01892083
0.676,0.008316339
0.6762,-0.004475368
0.6764,-0.01424645
0.6766,-0.01572068
0.6768,-0.01070746
0.677,-0.001895641
0.6772,0.005594533
0.6774,0.009674385
0.6776,0.00615524
0.6778,-0.00212584
0.678,-0.0151646
0.6782,-0.02810194
0.6784,-0.04295929
0.6786,-0.05727624
0.6788,-0.07190591
0.679,-0.08655395
0.6792,-0.09719059
0.6794,-0.107906
0.6796,-0.1154539
0.6798,-0.1200799
0.68,-0.124541
0.6802,-0.1290847
0.6804,-0.1361662
0.6806,-0.1425313
0.6808,-0.1506869
0.681,-0.1560182
0.6812,-0.1616994
0.6814,-0.1672507
0.6816,-0.1704447
0.6818,-0.168161
0.682,-0.161179
0.6822,-0.1502252
0.6824,-0.1365239
0.6826,-0.1236028
0.6828,-0.1090159
0.683,-0.09300379
0.6832,-0.07611661
0.6834,-0.06104683
0.6836,-0.05059229
0.6838,-0.04659009
0.684,-0.04267129
0.6842,-0.03731235
0.6844,-0.03226575
0.6846,-0.02751932
0.6848,-0.02351286
0.685,-0.02170458
0.6852,-0.02211761
0.6854,-0.02643263
0.6856,-0.03575222
0.6858,-0.0435092
0.686,-0.03948079
0.6862,-0.02702375
0.6864,-0.009730158
0.6866,0.007516301
0.6868,0.02666227
0.687,0.05431593
0.6872,0.09194221
0.6874,0.1375176
0.6876,0.1830847
0.6878,0.2188934
0.688,0.2414824
0.6882,0.2560099
0.6884,0.2657425
0.6886,0.2657131
0.6888,0.2578136
0.689,0.2433984
0.6892,0.2289913
0.6894,0.2089852
0.6896,0.1824744
0.6898,0.1522628
0.69,0.1232074
0.6902,0.1036062
0.6904,0.0893066
0.6906,0.0769637
0.6908,0.0602968
0.691,0.03944578
0.6912,0.0106002
0.6914,-0.02121352
0.6916,-0.04981165
0.6918,-0.07120302
0.692,-0.0900095
0.6922,-0.1086958
0.6924,-0.1263293
0.6926,-0.143282
0.6928,-0.1619329
0.693,-0.1783545
0.6932,-0.1912841
0.6934,-0.2035542
0.6936,-0.2129156
0.6938,-0.2191993
0.694,-0.2212177
0.6942,-0.2231628
0.6944,-0.2266818
0.6946,-0.2333524
0.6948,-0.2412433
0.695,-0.2522671
0.6952,-0.2633387
0.6954,-0.2728653
0.6956,-0.2792591
0.6958,-0.2824852
0.696,-0.2832259
0.6962,-0.2827118
0.6964,-0.2816009
0.6966,-0.2757052
0.6968,-0.2668224
0.697,-0.2548006
0.6972,-0.2380522
0.6974,-0.2199874
0.6976,-0.2018054
0.6978,-0.1829309
0.698,-0.1671701
0.6982,-0.1579616
0.6984,-0.1506011
0.6986,-0.142494
0.6988,-0.1358865
0.699,-0.1292566
0.6992,-0.1241268
0.6994,-0.1195872
0.6996,-0.113131
0.6998,-0.1052508
0.7,-0.09235352
0.7002,-0.0749098
0.7004,-0.05584957
0.7006,-0.03830376
0.7008,-0.02219223
0.701,-0.001841025
0.7012,0.0222626
0.7014,0.05358995
0.7016,0.08263102
0.7018,0.1065218
0.702,0.1211056
0.7022,0.127086
0.7024,0.1309164
0.7026,0.1321092
0.7028,0.1313948
0.703,0.1273896
0.7032,0.1233143
0.7034,0.1155651
0.7036,0.106388
0.7038,0.1007862
0.704,0.09777316
0.7042,0.09695584
0.7044,0.09851126
0.7046,0.1014155
0.7048,0.1028443
0.705,0.1038069
0.7052,0.1080955
0.7054,0.11396
0.7056,0.1189031
0.7058,0.1229692
0.706,0.1250121
0.7062,0.121048
0.7064,0.115084
0.7066,0.106069
0.7068,0.0986044
0.707,0.09137674
0.7072,0.08648909
0.7074,0.07974275
0.7076,0.07172561
0.7078,0.06588096
0.708,0.05704764
0.7082,0.05015374
0.7084,0.04345581
0.7086,0.03760421
0.7088,0.03451297
0.709,0.03300943
0.7092,0.02923558
0.7094,0.02521491
0.7096,0.02341457
0.7098,0.02045166
0.71,0.01889625
0.7102,0.01784036
0.7104,0.01680155
0.7106,0.01426224
0.7108,0.01212538
0.711,0.01269237
0.7112,0.01634696
0.7114,0.02103196
0.7116,0.02700831
0.7118,0.03685919
0.712,0.04755206
0.7122,0.05814273
0.7124,0.06302732
0.7126,0.06351151
0.7128,0.06474684
0.713,0.06695948
0.7132,0.06970089
0.7134,0.07689948
0.7136,0.08548479
0.7138,0.09483121
0.714,0.101175
0.7142,0.104273
0.7144,0.10574
0.7146,0.1056676
0.7148,0.1097481
0.715,0.1152929
0.7152,0.1218876
0.7154,0.1269344
0.7156,0.1247693
0.7158,0.1178464
0.716,0.1076212
0.7162,0.09805971
0.7164,0.09339601
0.7166,0.09898678
0.7168,0.1100907
0.717,0.1191191
0.7172,0.1268637
0.7174,0.1294287
0.7176,0.1266485
0.7178,0.1173485
0.718,0.1039879
0.7182,0.08643167
0.7184,0.06827222
0.7186,0.05036896
0.7188,0.03277915
0.719,0.01688971
0.7192,0.0004586921
0.7194,-0.01381125
0.7196,-0.02482508
0.7198,-0.03408822
0.72,-0.04235957
0.7202,-0.0489325
0.7204,-0.05460573
0.7206,-0.06032348
0.7208,-0.06814297
0.721,-0.07297426
0.7212,-0.07570464
0.7214,-0.07986696
0.7216,-0.08529742
0.7218,-0.0867125
0.722,-0.08505501
0.7222,-0.07762315
0.7224,-0.06421671
0.7226,-0.05015018
0.7228,-0.03436001
0.723,-0.01897722
0.7232,-0.008671775
0.7234,-0.001837943
0.7236,0.001799945
0.7238,0.003572417
0.724,0.005670062
0.7242,0.005614069
0.7244,0.003974001
0.7246,-0.000220858
0.7248,-0.007108657
0.725,-0.01680891
0.7252,-0.02891204
0.7254,-0.04102902
0.7256,-0.05275212
0.7258,-0.06107333
0.726,-0.06532455
0.7262,-0.0685399
0.7264,-0.06875006
0.7266,-0.06904212
0.7268,-0.06822401
0.727,-0.06872005
0.7272,-0.06976324
0.7274,-0.06864128
0.7276,-0.07037534
0.7278,-0.06999747
0.728,-0.07184365
0.7282,-0.0726531
0.7284,-0.07539256
0.7286,-0.0787453
0.7288,-0.08207504
0.729,-0.08626325
0.7292,-0.08975548
0.7294,-0.09389687
0.7296,-0.09648603
0.7298,-0.0962056
0.73,-0.09528985
0.7302,-0.09385469
0.7304,-0.08878984
0.7306,-0.08584876
0.7308,-0.08509412
0.731,-0.08614708
0.7312,-0.08371428
0.7314,-0.08059615
0.7316,-0.07899109
0.7318,-0.07733943
0.732,-0.07384226
0.7322,-0.06744539
0.7324,-0.05920582
0.7326,-0.04970893
0.7328,-0.0396741
0.733,-0.02683607
0.7332,-0.01235157
0.7334,0.001228091
0.7336,0.01127361
0.7338,0.01790238
0.734,0.02256546
0.7342,0.02476706
0.7344,0.02817484
0.7346,0.03244599
0.7348,0.03858708
0.735,0.04407249
0.7352,0.04802969
0.7354,0.04944894
0.7356,0.0488317
0.7358,0.04958874
0.736,0.05038177
0.7362,0.05181309
0.7364,0.05211874
0.7366,0.05323697
0.7368,0.05209514
0.737,0.04987667
0.7372,0.05024984
0.7374,0.0498777
0.7376,0.04984151
0.7378,0.05123241
0.738,0.05337122
0.7382,0.05315959
0.7384,0.05462371
0.7386,0.05585579
0.7388,0.05914663
0.739,0.07076286
0.7392,0.0835306
0.7394,0.09777379
0.7396,0.1081156
0.7398,0.1143596
0.74,0.1152781
0.7402,0.1109138
0.7404,0.1053313
0.7406,0.1019487
0.7408,0.1014045
0.741,0.0995807
0.7412,0.0996839
0.7414,0.1020494
0.7416,0.1054227
0.7418,0.1082061
0.742,0.1149873
0.7422,0.1280175
0.7424,0.1441104
0.7426,0.1635289
0.7428,0.185295
0.743,0.2095865
0.7432,0.2356637
0.7434,0.2688643
0.7436,0.2980579
0.7438,0.3167682
0.744,0.3253593
0.7442,0.3194787
0.7444,0.3065537
0.7446,0.2838987
0.7448,0.2520633
0.745,0.2142624
0.7452,0.1757192
0.7454,0.1366994
0.7456,0.09871572
0.7458,0.06065358
0.746,0.0194754
0.7462,-0.02008598
0.7464,-0.06312742
0.7466,-0.1065455
0.7468,-0.1428959
0.747,-0.1738953
0.7472,-0.1988645
0.7474,-0.2200208
0.7476,-0.2355391
0.7478,-0.2501286
0.748,-0.2615311
0.7482,-0.2715618
0.7484,-0.2817988
0.7486,-0.2887709
0.7488,-0.2911863
0.749,-0.2942512
0.7492,-0.3009193
0.7494,-0.3077413
0.7496,-0.3122779
0.7498,-0.3133573
0.75,-0.3124123
0.7502,-0.3077226
0.7504,-0.3013412
0.7506,-0.2926974
0.7508,-0.2821865
0.751,-0.2716008
0.7512,-0.2601399
0.7514,-0.2471629
0.7516,-0.2286842
0.7518,-0.2055874
0.752,-0.1771188
0.7522,-0.1498855
0.7524,-0.1254656
0.7526,-0.1037441
0.7528,-0.0847658
0.753,-0.07199463
0.7532,-0.06241576
0.7534,-0.05527801
0.7536,-0.04874547
0.7538,-0.0370794
0.754,-0.02193313
0.7542,-0.008977325
0.7544,0.001507034
0.7546,0.008854719
0.7548,0.01407568
0.755,0.01836771
0.7552,0.01952249
0.7554,0.02179716
0.7556,0.0246518
0.7558,0.02513137
0.756,0.02617234
0.7562,0.02878594
0.7564,0.03335051
0.7566,0.03747892
0.7568,0.03983238
0.757,0.03937016
0.7572,0.03981357
0.7574,0.03927733
0.7576,0.03819931
0.7578,0.03714465
0.758,0.03560626
0.7582,0.03375452
0.7584,0.02829869
0.7586,0.02476859
0.7588,0.02305033
0.759,0.02438475
0.7592,0.0282139
0.7594,0.03425705
0.7596,0.04159171
0.7598,0.04711327
0.76,0.0526688
0.7602,0.0555515
0.7604,0.05832634
0.7606,0.06111358
0.7608,0.06139391
0.761,0.06048401
0.7612,0.05785916
0.7614,0.05417842
0.7616,0.05027169
0.7618,0.0470261
0.762,0.04446844
0.7622,0.0405614
0.7624,0.03695589
0.7626,0.0352263
0.7628,0.03241868
0.763,0.02966426
0.7632,0.02832885
0.7634,0.03017756
0.7636,0.02973409
0.7638,0.02743243
0.764,0.02499045
0.7642,0.02296002
0.7644,0.02188598
0.7646,0.01963018
0.7648,0.01899807
0.765,0.01664262
0.7652,0.01498905
0.7654,0.01572912
0.7656,0.01507312
0.7658,0.01287324
0.766,0.01096182
0.7662,0.01211649
0.7664,0.01292849
0.7666,0.01184089
0.7668,0.0111553
0.767,0.01284587
0.7672,0.01253296
0.7674,0.01500316
0.7676,0.01553312
0.7678,0.01712397
0.768,0.0180106
0.7682,0.01795997
0.7684,0.01890896
0.7686,0.02160356
0.7688,0.02285895
0.769,0.02347754
0.7692,0.02370024
0.7694,0.02210245
0.7696,0.02274718
0.7698,0.02454264
0.77,0.02639342
0.7702,0.02844701
0.7704,0.0280619
0.7706,0.02800767
0.7708,0.02981303
0.771,0.03159069
0.7712,0.0324724
0.7714,0.03332291
0.7716,0.03327715
0.7718,0.03383197
0.772,0.03295282
0.7722,0.03037502
0.7724,0.03126788
0.7726,0.03239286
0.7728,0.03135632
0.773,0.02862802
0.7732,0.0277807
0.7734,0.02807553
0.7736,0.02741716
0.7738,0.02713436
0.774,0.0286298
0.7742,0.02998096
0.7744,0.03010638
0.7746,0.03227087
0.7748,0.03140814
0.775,0.03131114
0.7752,0.03025711
0.7754,0.03039911
0.7756,0.03045504
0.7758,0.03031177
0.776,0.03233778
0.7762,0.03166967
0.7764,0.03003188
0.7766,0.02727931
0.7768,0.02598098
0.777,0.02441279
0.7772,0.02402871
0.7774,0.02065848
0.7776,0.01646574
0.7778,0.01402787
0.778,0.01248392
0.7782,0.01002766
0.7784,0.006895062
0.7786,0.004543068
0.7788,0.003152183
0.779,0.003071408
0.7792,0.001903027
0.7794,-0.0008179854
0.7796,-0.002404824
0.7798,-0.003824042
0.78,-0.006997967
0.7802,-0.01029942
0.7804,-0.01326799
0.7806,-0.01585246
0.7808,-0.01853948
0.781,-0.02038517
0.7812,-0.02202449
0.7814,-0.0242127
0.7816,-0.02584604
0.7818,-0.02732648
0.782,-0.0290147
0.7822,-0.03110311
0.7824,-0.03185983
0.7826,-0.03235406
0.7828,-0.03290442
0.783,-0.03386911
0.7832,-0.03387838
0.7834,-0.03376292
0.7836,-0.03348592
0.7838,-0.03531002
0.784,-0.03833417
0.7842,-0.03696218
0.7844,-0.03589467
0.7846,-0.03536738
0.7848,-0.03436404
0.785,-0.0332396
0.7852,-0.0281131
0.7854,-0.01844826
0.7856,-0.007556478
0.7858,0.001095092
0.786,0.007358804
0.7862,0.00956573
0.7864,0.0106037
0.7866,0.01316033
0.7868,0.01879936
0.787,0.02267147
0.7872,0.02435642
0.7874,0.02508347
0.7876,0.02543646
0.7878,0.02029311
0.788,0.01431047
0.7882,0.01047312
0.7884,0.01120994
0.7886,0.01101681
0.7888,0.01148546
0.789,0.01534406
0.7892,0.02413213
0.7894,0.03770603
0.7896,0.05436344
0.7898,0.06518219
0.79,0.06791712
0.7902,0.06587248
0.7904,0.05798247
0.7906,0.05041672
0.7908,0.04117648
0.791,0.02989801
0.7912,0.01722185
0.7914,0.005816246
0.7916,-0.005164437
0.7918,-0.01453057
0.792,-0.02487281
0.7922,-0.03299318
0.7924,-0.0392893
0.7926,-0.0417183
0.7928,-0.04241585
0.793,-0.04319536
0.7932,-0.04123097
0.7934,-0.03973055
0.7936,-0.03776511
0.7938,-0.03779822
0.794,-0.03790455
0.7942,-0.03842466
0.7944,-0.037767
0.7946,-0.03632597
0.7948,-0.03249954
0.795,-0.0285034
0.7952,-0.02591568
0.7954,-0.02188911
0.7956,-0.01691588
0.7958,-0.01066045
0.796,-0.004204425
0.7962,0.002110915
0.7964,0.005502215
0.7966,0.005417246
0.7968,0.003073114
0.797,0.001008816
0.7972,-0.001173831
0.7974,-0.003440064
0.7976,-0.00292475
0.7978,-0.003689453
0.798,0.0002810482
0.7982,0.005655306
0.7984,0.009546314
0.7986,0.010869
0.7988,0.01240907
0.799,0.01147744
0.7992,0.01019448
0.7994,0.009561121
0.7996,0.009674607
0.7998,0.01022349
0.8,0.00711203
0.8002,0.004630329
0.8004,0.003885069
0.8006,0.002249775
0.8008,-0.0004278594
0.801,-0.003902069
0.8012,-0.007352548
0.8014,-0.01164766
0.8016,-0.01484341
0.8018,-0.01801089
0.802,-0.0201312
0.8022,-0.02203111
0.8024,-0.02421544
0.8026,-0.0240219
0.8028,-0.02484856
0.803,-0.02569282
0.8032,-0.02733564
0.8034,-0.02718034
0.8036,-0.02511576
0.8038,-0.02309831
0.804,-0.02084038
0.8042,-0.02044892
0.8044,-0.01990148
0.8046,-0.02019092
0.8048,-0.0211008
0.805,-0.02070836
0.8052,-0.02225499
0.8054,-0.02153741
0.8056,-0.02322662
0.8058,-0.0252337
0.806,-0.02564391
0.8062,-0.02833153
0.8064,-0.03090004
0.8066,-0.03157908
0.8068,-0.03084223
0.807,-0.02852463
0.8072,-0.02377039
0.8074,-0.01936562
0.8076,-0.01562151
0.8078,-0.01240068
0.808,-0.009098737
0.8082,-0.005318968
0.8084,-0.004711962
0.8086,-0.003014824
0.8088,-0.002949294
0.809,-0.002290091
0.8092,-0.001479878
0.8094,0.0005505356
0.8096,0.001261661
0.8098,0.00312733
0.81,0.005600348
0.8102,0.008213604
0.8104,0.01060635
0.8106,0.01156339
0.8108,0.01495659
0.811,0.01828247
0.8112,0.02090485
0.8114,0.02383465
0.8116,0.02637333
0.8118,0.02941255
0.812,0.03193556
0.8122,0.03465627
0.8124,0.03592243
0.8126,0.03662824
0.8128,0.03659452
0.813,0.03766423
0.8132,0.03766862
0.8134,0.03553243
0.8136,0.03646275
0.8138,0.03594869
0.814,0.03601478
0.8142,0.03565586
0.8144,0.03487004
0.8146,0.03622084
0.8148,0.03636706
0.815,0.03644003
0.8152,0.03527226
0.8154,0.03311806
0.8156,0.03086451
0.8158,0.03108411
0.816,0.03098072
0.8162,0.03192325
0.8164,0.03126729
0.8166,0.03067283
0.8168,0.03316238
0.817,0.03321086
0.8172,0.0337749
0.8174,0.03151995
0.8176,0.03063826
0.8178,0.02732089
0.818,0.02503793
0.8182,0.02352742
0.8184,0.02146584
0.8186,0.01694498
0.8188,0.01218957
0.819,0.009035314
0.8192,0.002878957
0.8194,-0.00251469
0.8196,-0.007145831
0.8198,-0.009137755
0.82,-0.01088857
0.8202,-0.01046534
0.8204,-0.009927632
0.8206,-0.01127933
0.8208,-0.01239011
0.821,-0.01426642
0.8212,-0.01586939
0.8214,-0.01862695
0.8216,-0.02038817
0.8218,-0.02095965
0.822,-0.02373468
0.8222,-0.02631164
0.8224,-0.02808751
0.8226,-0.02973689
0.8228,-0.0302853
0.823,-0.03015456
0.8232,-0.03196055
0.8234,-0.03302886
0.8236,-0.03365892
0.8238,-0.03276525
0.824,-0.03245329
0.8242,-0.03265481
0.8244,-0.03258994
0.8246,-0.03292545
0.8248,-0.0330664
0.825,-0.03425473
0.8252,-0.03298601
0.8254,-0.0321417
0.8256,-0.02997642
0.8258,-0.02967255
0.826,-0.03024256
0.8262,-0.030471
0.8264,-0.0310224
0.8266,-0.03005558
0.8268,-0.0302559
0.827,-0.02833728
0.8272,-0.02484288
0.8274,-0.02081277
0.8276,-0.01795108
0.8278,-0.01414975
0.828,-0.01080545
0.8282,-0.009899001
0.8284,-0.007987073
0.8286,-0.003891393
0.8288,-0.002402679
0.829,-0.001191243
0.8292,0.0006723097
0.8294,0.002444685
0.8296,0.004558407
0.8298,0.007062449
0.83,0.008748019
0.8302,0.009654715
0.8304,0.01049581
0.8306,0.01164119
0.8308,0.01351405
0.831,0.01471791
0.8312,0.0147921
0.8314,0.01714914
0.8316,0.0203801
0.8318,0.02254519
0.832,0.02312719
0.8322,0.02371317
0.8324,0.02449202
0.8326,0.02576188
0.8328,0.02653166
0.833,0.02694034
0.8332,0.02818703
0.8334,0.02877181
0.8336,0.02769065
0.8338,0.02760625
0.834,0.02724214
0.8342,0.03016157
0.8344,0.03052524
0.8346,0.03059453
0.8348,0.03198772
0.835,0.03113142
0.8352,0.02973175
0.8354,0.02568835
0.8356,0.02313699
0.8358,0.02193074
0.836,0.02199396
0.8362,0.0207072
0.8364,0.02215181
0.8366,0.02471008
0.8368,0.02491844
0.837,0.02470507
0.8372,0.02258977
0.8374,0.01986222
0.8376,0.01707932
0.8378,0.01506186
0.838,0.0132071
0.8382,0.01024903
0.8384,0.008275113
0.8386,0.006751373
0.8388,0.004009727
0.839,0.001005136
0.8392,-0.001083913
0.8394,-0.003996002
0.8396,-0.003552763
0.8398,-0.003615492
0.84,-0.005409468
0.8402,-0.007689367
0.8404,-0.009061985
0.8406,-0.01211483
0.8408,-0.01555036
0.841,-0.01761365
0.8412,-0.02007723
0.8414,-0.0206047
0.8416,-0.0232446
0.8418,-0.02558759
0.842,-0.02572057
0.8422,-0.02447068
0.8424,-0.02450563
0.8426,-0.02541792
0.8428,-0.02647375
0.843,-0.02603542
0.8432,-0.02895619
0.8434,-0.03087954
0.8436,-0.03147944
0.8438,-0.03130453
0.844,-0.03158629
0.8442,-0.03182248
0.8444,-0.03100617
0.8446,-0.03099906
0.8448,-0.03214483
0.845,-0.03333981
0.8452,-0.03156385
0.8454,-0.02867698
0.8456,-0.02744918
0.8458,-0.02671325
0.846,-0.02458576
0.8462,-0.02371578
0.8464,-0.02369615
0.8466,-0.02192049
0.8468,-0.020318
0.847,-0.01975763
0.8472,-0.01840596
0.8474,-0.01589777
0.8476,-0.01721229
0.8478,-0.0160389
0.848,-0.01412251
0.8482,-0.01021607
0.8484,-0.00667354
0.8486,-0.00542871
0.8488,-0.004097878
0.849,-0.002817609
0.8492,-0.0003584592
0.8494,0.001753427
0.8496,0.002795083
0.8498,0.004785669
0.85,0.006699223
0.8502,0.007506595
0.8504,0.006893252
0.8506,0.009056231
0.8508,0.01288363
0.851,0.01447924
0.8512,0.01686302
0.8514,0.01863025
0.8516,0.02115562
0.8518,0.02258111
0.852,0.02297206
0.8522,0.02498573
0.8524,0.02704794
0.8526,0.02975402
0.8528,0.03043514
0.853,0.03309147
0.8532,0.03355537
0.8534,0.03249685
0.8536,0.03367776
0.8538,0.03192146
0.854,0.03197905
0.8542,0.03161095
0.8544,0.03230694
0.8546,0.03225367
0.8548,0.03301128
0.855,0.03304477
0.8552,0.03026209
0.8554,0.02998187
0.8556,0.02925242
0.8558,0.02713843
0.856,0.02482577
0.8562,0.02364228
0.8564,0.02446005
0.8566,0.02332731
0.8568,0.02210924
0.857,0.02113987
0.8572,0.02077741
0.8574,0.01818038
0.8576,0.01656148
0.8578,0.01526446
0.858,0.01389621
0.8582,0.01314802
0.8584,0.01129911
0.8586,0.009388937
0.8588,0.007326751
0.859,0.004866532
0.8592,0.003461542
0.8594,0.0009146072
0.8596,-0.0001966268
0.8598,-3.835717e-05
0.86,-0.001268847
0.8602,-0.005797991
0.8604,-0.007983197
0.8606,-0.009053604
0.8608,-0.01084649
0.861,-0.01162236
0.8612,-0.01400364
0.8614,-0.01630948
0.8616,-0.01802156
0.8618,-0.02184231
0.862,-0.02337129
0.8622,-0.02353258
0.8624,-0.02484126
0.8626,-0.02594707
0.8628,-0.02630092
0.863,-0.02694082
0.8632,-0.02730305
0.8634,-0.02848897
0.8636,-0.02865775
0.8638,-0.02775692
0.864,-0.02968226
0.8642,-0.03217837
0.8644,-0.03231968
0.8646,-0.03158571
0.8648,-0.03222932
0.865,-0.03242515
0.8652,-0.03377733
0.8654,-0.03430206
0.8656,-0.03546159
0.8658,-0.0388444
0.866,-0.04079339
0.8662,-0.04289991
0.8664,-0.04287391
0.8666,-0.04129288
0.8668,-0.03782639
0.867,-0.03384962
0.8672,-0.02742887
0.8674,-0.02301908
0.8676,-0.02022533
0.8678,-0.016418
0.868,-0.01216541
0.8682,-0.008085147
0.8684,-0.005511579
0.8686,-0.001579824
0.8688,0.0003940766
0.869,0.004123895
0.8692,0.005363477
0.8694,0.005360372
0.8696,0.008309467
0.8698,0.009426478
0.87,0.01189628
0.8702,0.01441041
0.8704,0.0177464
0.8706,0.0198739
0.8708,0.02174603
0.871,0.02412045
0.8712,0.02519573
0.8714,0.02560519
0.8716,0.02635724
0.8718,0.02633941
0.872,0.02517445
0.8722,0.02562042
0.8724,0.02464643
0.8726,0.02371938
0.8728,0.02543096
0.873,0.02850692
0.8732,0.02916063
0.8734,0.02667036
0.8736,0.02570539
0.8738,0.02617534
0.874,0.02581307
0.8742,0.02571771
0.8744,0.02605495
0.8746,0.02384048
0.8748,0.02205436
0.875,0.0223775
0.8752,0.02300265
0.8754,0.0237445
0.8756,0.02452176
0.8758,0.02499426
0.876,0.02461513
0.8762,0.0261255
0.8764,0.02693947
0.8766,0.02677269
0.8768,0.0255595
0.877,0.02534201
0.8772,0.02663896
0.8774,0.02551869
0.8776,0.02358087
0.8778,0.02251771
0.878,0.02092688
0.8782,0.01797724
0.8784,0.01620157
0.8786,0.01218207
0.8788,0.008583771
0.879,0.004767997
0.8792,0.002293677
0.8794,0.001162654
0.8796,-0.0003144782
0.8798,-0.002288154
0.88,-0.005153629
0.8802,-0.004842018
0.8804,-0.004971441
0.8806,-0.008248972
0.8808,-0.01107574
0.881,-0.01348037
0.8812,-0.01461028
0.8814,-0.01806204
0.8816,-0.02036377
0.8818,-0.02328166
0.882,-0.02811831
0.8822,-0.03046569
0.8824,-0.03291567
0.8826,-0.03300857
0.8828,-0.03325338
0.883,-0.03533976
0.8832,-0.03727509
0.8834,-0.03804728
0.8836,-0.03973963
0.8838,-0.04190665
0.884,-0.04105623
0.8842,-0.04157018
0.8844,-0.04138025
0.8846,-0.04089119
0.8848,-0.04022064
0.885,-0.0408411
0.8852,-0.0389015
0.8854,-0.03679283
0.8856,-0.03540713
0.8858,-0.03405389
0.886,-0.03310908
0.8862,-0.03107268
0.8864,-0.02918955
0.8866,-0.02827473
0.8868,-0.02497141
0.887,-0.02386519
0.8872,-0.02240806
0.8874,-0.02188447
0.8876,-0.02041542
0.8878,-0.01721632
0.888,-0.01578018
0.8882,-0.0109973
0.8884,-0.007594108
0.8886,-0.004123215
0.8888,-0.002429217
0.889,0.000305119
0.8892,0.003850139
0.8894,0.006198136
0.8896,0.008800566
0.8898,0.009024347
0.89,0.01112111
0.8902,0.01346356
0.8904,0.01425723
0.8906,0.01642155
0.8908,0.01938569
0.891,0.02053642
0.8912,0.02084104
0.8914,0.0222213
0.8916,0.02139773
0.8918,0.02219523
0.892,0.02265027
0.8922,0.02568289
0.8924,0.025935
0.8926,0.0260311
0.8928,0.0285953
0.893,0.02973646
0.8932,0.03113309
0.8934,0.03253698
0.8936,0.03448748
0.8938,0.03406151
0.894,0.03334472
0.8942,0.03147964
0.8944,0.03124344
0.8946,0.03230476
0.8948,0.03222135
0.895,0.03203903
0.8952,0.03276465
0.8954,0.03372404
0.8956,0.03117289
0.8958,0.03030926
0.896,0.03053793
0.8962,0.03071122
0.8964,0.02737269
0.8966,0.02404897
0.8968,0.02307332
0.897,0.02123944
0.8972,0.01917735
0.8974,0.01800049
0.8976,0.01678775
0.8978,0.01525477
0.898,0.01301716
0.8982,0.01175039
0.8984,0.009814589
0.8986,0.006516651
0.8988,0.005804015
0.899,0.003279193
0.8992,0.001894839
0.8994,0.0009631019
0.8996,0.000480556
0.8998,-0.0002566823
0.9,-0.00151863
0.9002,-0.001959527
0.9004,-0.004847887
0.9006,-0.007068273
0.9008,-0.009695948
0.901,-0.01233846
0.9012,-0.01359259
0.9014,-0.01537251
0.9016,-0.01542782
0.9018,-0.01675951
0.902,-0.01647323
0.9022,-0.01714129
0.9024,-0.02096415
0.9026,-0.02317017
0.9028,-0.02359652
0.903,-0.0250941
0.9032,-0.02826697
0.9034,-0.02978462
0.9036,-0.02971622
0.9038,-0.02909997
0.904,-0.02932632
0.9042,-0.03023322
0.9044,-0.02912765
0.9046,-0.02979234
0.9048,-0.02867271
0.905,-0.02784939
0.9052,-0.02775346
0.9054,-0.02784027
0.9056,-0.02720823
0.9058,-0.02651205
0.906,-0.02755097
0.9062,-0.02709607
0.9064,-0.02656933
0.9066,-0.02729709
0.9068,-0.02846086
0.907,-0.02887725
0.9072,-0.02636801
0.9074,-0.02599076
0.9076,-0.02583601
0.9078,-0.0264212
0.908,-0.02528536
0.9082,-0.02299366
0.9084,-0.02086025
0.9086,-0.01813037
0.9088,-0.01324125
0.909,-0.009612028
0.9092,-0.007634059
0.9094,-0.003576447
0.9096,0.0008797176
0.9098,0.002908573
0.91,0.004450704
0.9102,0.008068099
0.9104,0.009184915
0.9106,0.01062831
0.9108,0.01285655
0.911,0.01524483
0.9112,0.01745368
0.9114,0.01681837
0.9116,0.0179586
0.9118,0.02059629
0.912,0.02277953
0.9122,0.02555205
0.9124,0.02838038
0.9126,0.02896503
0.9128,0.02878099
0.913,0.03007622
0.9132,0.03089059
0.9134,0.03249938
0.9136,0.03458969
0.9138,0.03584525
0.914,0.03479627
0.9142,0.03528146
0.9144,0.03605704
0.9146,0.03452632
0.9148,0.03399114
0.915,0.03389369
0.9152,0.03372041
0.9154,0.03236462
0.9156,0.03200264
0.9158,0.031025
0.916,0.02970756
0.9162,0.03026886
0.9164,0.02777657
0.9166,0.02668256
0.9168,0.02423169
0.917,0.02217049
0.9172,0.02095356
0.9174,0.01851803
0.9176,0.0161074
0.9178,0.01491257
0.918,0.01453054
0.9182,0.01009075
0.9184,0.006789515
0.9186,0.003183505
0.9188,0.0004636928
0.919,-0.001349616
0.9192,-0.002516394
0.9194,-0.004163229
0.9196,-0.006022797
0.9198,-0.009575322
0.92,-0.01279891
0.9202,-0.0141025
0.9204,-0.01507584
0.9206,-0.01547707
0.9208,-0.01690243
0.921,-0.01945452
0.9212,-0.01987892
0.9214,-0.02128821
0.9216,-0.021278
0.9218,-0.02211364
0.922,-0.02413804
0.9222,-0.02525917
0.9224,-0.02494678
0.9226,-0.02547514
0.9228,-0.02431103
0.923,-0.02673756
0.9232,-0.0293808
0.9234,-0.03089544
0.9236,-0.0308334
0.9238,-0.03181527
0.924,-0.03160283
0.9242,-0.03072289
0.9244,-0.02986589
0.9246,-0.02985415
0.9248,-0.03058765
0.925,-0.02838562
0.9252,-0.0274598
0.9254,-0.02472387
0.9256,-0.02358555
0.9258,-0.02196159
0.926,-0.02232585
0.9262,-0.02252269
0.9264,-0.0228236
0.9266,-0.02381415
0.9268,-0.0233194
0.927,-0.02274645
0.9272,-0.02361961
0.9274,-0.0238526
0.9276,-0.02154161
0.9278,-0.02011913
0.928,-0.01814025
0.9282,-0.01790577
0.9284,-0.01511069
0.9286,-0.01229666
0.9288,-0.008888391
0.929,-0.006303554
0.9292,-0.004557303
0.9294,-0.001261934
0.9296,0.002293857
0.9298,0.003257135
0.93,0.004062414
0.9302,0.007173747
0.9304,0.01036229
0.9306,0.01355316
0.9308,0.0163757
0.931,0.0199429
0.9312,0.02132523
0.9314,0.02410581
0.9316,0.02669367
0.9318,0.02858616
0.932,0.03087019
0.9322,0.03412433
0.9324,0.03738379
0.9326,0.03857116
0.9328,0.03916449
0.933,0.04001339
0.9332,0.04135301
0.9334,0.0410783
0.9336,0.04144
0.9338,0.0404
0.934,0.03959232
0.9342,0.03904723
0.9344,0.03803807
0.9346,0.03710954
0.9348,0.03560155
0.935,0.03249622
0.9352,0.02887735
0.9354,0.02768717
0.9356,0.02644914
0.9358,0.02493111
0.936,0.02259552
0.9362,0.02222651
0.9364,0.02238081
0.9366,0.02309551
0.9368,0.01995149
0.937,0.01676899
0.9372,0.01461319
0.9374,0.01408779
0.9376,0.01258921
0.9378,0.009169457
0.938,0.005732102
0.9382,0.001230963
0.9384,-0.00155003
0.9386,-0.003919305
0.9388,-0.004525934
0.939,-0.007241543
0.9392,-0.00829454
0.9394,-0.008772041
0.9396,-0.008579759
0.9398,-0.008449358
0.94,-0.007942844
0.9402,-0.009962015
0.9404,-0.01190313
0.9406,-0.01256255
0.9408,-0.0153529
0.941,-0.01762117
0.9412,-0.01873096
0.9414,-0.01849514
0.9416,-0.01919957
0.9418,-0.02063645
0.942,-0.02301481
0.9422,-0.02442991
0.9424,-0.0246479
0.9426,-0.02273379
0.9428,-0.02283414
0.943,-0.02475364
0.9432,-0.0267405
0.9434,-0.02690262
0.9436,-0.0292041
0.9438,-0.0303188
0.944,-0.03312847
0.9442,-0.03263001
0.9444,-0.03275926
0.9446,-0.03396327
0.9448,-0.03253336
0.945,-0.0318223
0.9452,-0.03211385
0.9454,-0.03085479
0.9456,-0.02852317
0.9458,-0.02646671
0.946,-0.02466335
0.9462,-0.02480922
0.9464,-0.02504965
0.9466,-0.02409369
0.9468,-0.02241634
0.947,-0.01999249
0.9472,-0.01831471
0.9474,-0.01762682
0.9476,-0.01747872
0.9478,-0.0170652
0.948,-0.01434247
0.9482,-0.01235316
0.9484,-0.01085618
0.9486,-0.008081686
0.9488,-0.006536469
0.949,-0.004349137
0.9492,-0.002935182
0.9494,0.0002300891
0.9496,0.0007153863
0.9498,0.0008874564
0.95,0.002752271
0.9502,0.004023486
0.9504,0.007340539
0.9506,0.00765015
0.9508,0.01066951
0.951,0.01304196
0.9512,0.01539964
0.9514,0.01734802
0.9516,0.01862502
0.9518,0.02310839
0.952,0.02462187
0.9522,0.02496376
0.9524,0.02683232
0.9526,0.02832131
0.9528,0.03030447
0.953,0.03305531
0.9532,0.0335952
0.9534,0.03359302
0.9536,0.0339729
0.9538,0.03572518
0.954,0.03634886
0.9542,0.03625771
0.9544,0.03428297
0.9546,0.03313982
0.9548,0.03299126
0.955,0.03358401
0.9552,0.03422413
0.9554,0.03439444
0.9556,0.03261323
0.9558,0.03068725
0.956,0.03032301
0.9562,0.03104069
0.9564,0.03252371
0.9566,0.03192037
0.9568,0.029664
0.957,0.02670518
0.9572,0.02516269
0.9574,0.02239507
0.9576,0.02060232
0.9578,0.01818616
0.958,0.01779446
0.9582,0.01575042
0.9584,0.01229266
0.9586,0.01030593
0.9588,0.009405171
0.959,0.009374148
0.9592,0.008358629
0.9594,0.008583079
0.9596,0.005584858
0.9598,0.001513852
0.96,-0.0002541746
0.9602,-0.002072088
0.9604,-0.004865029
0.9606,-0.007039689
0.9608,-0.01070937
0.961,-0.01297961
0.9612,-0.01518104
0.9614,-0.01784809
0.9616,-0.02057625
0.9618,-0.02188264
0.962,-0.02286571
0.9622,-0.0239567
0.9624,-0.02579856
0.9626,-0.0300345
0.9628,-0.03292011
0.963,-0.03335306
0.9632,-0.03525658
0.9634,-0.03796227
0.9636,-0.03946739
0.9638,-0.0408082
0.964,-0.04046401
0.9642,-0.03953707
0.9644,-0.03773952
0.9646,-0.03698016
0.9648,-0.03723295
0.965,-0.03686224
0.9652,-0.03425324
0.9654,-0.03300709
0.9656,-0.0314521
0.9658,-0.03100227
0.966,-0.03152438
0.9662,-0.03279727
0.9664,-0.03423148
0.9666,-0.03621731
0.9668,-0.03544603
0.967,-0.03270689
0.9672,-0.02983317
0.9674,-0.02700299
0.9676,-0.02377003
0.9678,-0.01975654
0.968,-0.01627175
0.9682,-0.01287818
0.9684,-0.008767973
0.9686,-0.005742122
0.9688,-0.003777907
0.969,-0.002731823
0.9692,-0.0002644257
0.9694,0.003563997
0.9696,0.006276099
0.9698,0.008665816
0.97,0.008801287
0.9702,0.009357005
0.9704,0.01223791
0.9706,0.01530929
0.9708,0.01691902
0.971,0.01699067
0.9712,0.017359
0.9714,0.02097907
0.9716,0.02484764
0.9718,0.02782424
0.972,0.03099728
0.9722,0.03259904
0.9724,0.03435404
0.9726,0.03462006
0.9728,0.03471314
0.973,0.03423677
0.9732,0.0345667
0.9734,0.03278854
0.9736,0.03350879
0.9738,0.03442616
0.974,0.03286051
0.9742,0.03296095
0.9744,0.03168274
0.9746,0.03066454
0.9748,0.03092526
0.975,0.03303918
0.9752,0.03327528
0.9754,0.03358044
0.9756,0.03254913
0.9758,0.03153973
0.976,0.02962374
0.9762,0.02901108
0.9764,0.02829504
0.9766,0.02764196
0.9768,0.02645968
0.977,0.02529557
0.9772,0.02331571
0.9774,0.02113
0.9776,0.02152915
0.9778,0.01946247
0.978,0.01704795
0.9782,0.01295528
0.9784,0.01057009
0.9786,0.01006593
0.9788,0.008832798
0.979,0.006541835
0.9792,0.004253572
0.9794,0.0008022084
0.9796,-0.002955483
0.9798,-0.004187178
0.98,-0.004959065
0.9802,-0.007574692
0.9804,-0.009692544
0.9806,-0.01390288
0.9808,-0.01628559
0.981,-0.01933988
0.9812,-0.02122077
0.9814,-0.02156836
0.9816,-0.02420264
0.9818,-0.02590632
0.982,-0.02596045
0.9822,-0.02507655
0.9824,-0.02567237
0.9826,-0.02536434
0.9828,-0.02642904
0.983,-0.02836023
0.9832,-0.03006842
0.9834,-0.03022473
0.9836,-0.02678662
0.9838,-0.02774564
0.984,-0.02992211
0.9842,-0.03209108
0.9844,-0.03212123
0.9846,-0.0326052
0.9848,-0.03275814
0.985,-0.03136916
0.9852,-0.03059437
0.9854,-0.03033854
0.9856,-0.03130511
0.9858,-0.03067724
0.986,-0.03009778
0.9862,-0.02951204
0.9864,-0.02894342
0.9866,-0.02864824
0.9868,-0.02633873
0.987,-0.02389955
0.9872,-0.02120775
0.9874,-0.0194543
0.9876,-0.01807961
0.9878,-0.01514057
0.988,-0.01433952
0.9882,-0.01273425
0.9884,-0.008821311
0.9886,-0.00551133
0.9888,-0.001315657
0.989,0.002503917
0.9892,0.002772501
0.9894,0.002472915
0.9896,0.004082696
0.9898,0.007035052
0.99,0.00903637
0.9902,0.01135832
0.9904,0.01282892
0.9906,0.01334741
0.9908,0.01428979
0.991,0.01745793
0.9912,0.02042606
0.9914,0.02218996
0.9916,0.02414929
0.9918,0.02363628
0.992,0.02563808
0.9922,0.02709531
0.9924,0.02834309
0.9926,0.02879365
0.9928,0.03069399
0.993,0.03250178
0.9932,0.03185599
0.9934,0.03304445
0.9936,0.03346353
0.9938,0.03369733
0.994,0.03437655
0.9942,0.03441595
0.9944,0.03255771
0.9946,0.03099503
0.9948,0.03202827
0.995,0.03033399
0.9952,0.0300631
0.9954,0.03019509
0.9956,0.02976708
0.9958,0.02900694
0.996,0.02799522
0.9962,0.02584331
0.9964,0.02437001
0.9966,0.02235835
0.9968,0.02049699
0.997,0.01929303
0.9972,0.01615741
0.9974,0.01473681
0.9976,0.01158409
0.9978,0.01093841
0.998,0.00850516
0.9982,0.005518108
0.9984,0.002897336
0.9986,0.001118374
0.9988,0.001411076
0.999,0.0003983495
0.9992,-0.001597749
0.9994,-0.001979601
0.9996,-0.002439597
0.9998,-0.004274485
1.0,-0.004721814
1.0002,-0.007485997
1.0004,-0.008951524
1.0006,-0.01021501
1.0008,-0.01282529
1.001,-0.0143386
1.0012,-0.01732488
1.0014,-0.02054506
1.0016,-0.02362953
1.0018,-0.02363811
1.002,-0.02493822
1.0022,-0.02478673
1.0024,-0.02523334
1.0026,-0.02683142
1.0028,-0.02698499
1.003,-0.02733304
1.0032,-0.02844398
1.0034,-0.02953122
1.0036,-0.03027469
1.0038,-0.03125868
1.004,-0.03091062
1.0042,-0.03140825
1.0044,-0.03095153
1.0046,-0.03052141
1.0048,-0.03065574
1.005,-0.02902025
1.0052,-0.02805312
1.0054,-0.02781829
1.0056,-0.02655045
1.0058,-0.02505604
1.006,-0.02350973
1.0062,-0.02363752
1.0064,-0.0250655
1.0066,-0.02343941
1.0068,-0.02182518
1.007,-0.01953209
1.0072,-0.02143366
1.0074,-0.02270813
1.0076,-0.02278404
1.0078,-0.02023075
1.008,-0.01744164
1.0082,-0.01462804
1.0084,-0.01089982
1.0086,-0.009200201
1.0088,-0.008065179
1.009,-0.006521371
1.0092,-0.004633693
1.0094,-0.001775242
1.0096,-0.0007341429
1.0098,-0.0002396673
1.01,0.001669882
1.0102,0.003715221
1.0104,0.006529365
1.0106,0.009134913
1.0108,0.011921
1.011,0.01370005
1.0112,0.01612531
1.0114,0.01788094
1.0116,0.01863401
1.0118,0.02013868
1.012,0.02046146
1.0122,0.02194683
1.0124,0.02352638
1.0126,0.023778
1.0128,0.02597793
1.013,0.0275719
1.0132,0.02887247
1.0134,0.03010258
1.0136,0.03006959
1.0138,0.0274588
1.014,0.030167
1.0142,0.03279914
1.0144,0.03215981
1.0146,0.030854
1.0148,0.03154054
1.015,0.03256058
1.0152,0.03287148
1.0154,0.03208842
1.0156,0.0299001
1.0158,0.02679581
1.016,0.02531644
1.0162,0.02495062
1.0164,0.02519623
1.0166,0.02075981
1.0168,0.01944033
1.017,0.01969771
1.0172,0.01948561
1.0174,0.01811857
1.0176,0.01729109
1.0178,0.01554889
1.018,0.01349211
1.0182,0.01119976
1.0184,0.008745317
1.0186,0.006534071
1.0188,0.004148142
1.019,0.003690324
1.0192,0.003179538
1.0194,0.002519902
1.0196,6.171412e-06
1.0198,-0.00323425
1.02,-0.005391038
1.0202,-0.005759575
1.0204,-0.00769051
1.0206,-0.008836079
1.0208,-0.01098901
1.021,-0.01392416
1.0212,-0.01549129
1.0214,-0.01690347
1.0216,-0.01808576
1.0218,-0.01975306
1.022,-0.02093357
1.0222,-0.02509893
1.0224,-0.02663093
1.0226,-0.02714466
1.0228,-0.02956462
1.023,-0.02925907
1.0232,-0.02960596
1.0234,-0.02958283
1.0236,-0.0297242
1.0238,-0.03090434
1.024,-0.03117294
1.0242,-0.02968297
1.0244,-0.03073041
1.0246,-0.0308471
1.0248,-0.03013855
1.025,-0.03006111
1.0252,-0.03050416
1.0254,-0.02999467
1.0256,-0.02878376
1.0258,-0.02855678
1.026,-0.02745819
1.0262,-0.02757674
1.0264,-0.02695636
1.0266,-0.02544025
1.0268,-0.0237265
1.027,-0.02243298
1.0272,-0.01941779
1.0274,-0.01707822
1.0276,-0.01725524
1.0278,-0.01550824
1.028,-0.01323625
1.0282,-0.01118615
1.0284,-0.009308554
1.0286,-0.007199512
1.0288,-0.005385251
1.029,-0.003399477
1.0292,-0.001783551
1.0294,0.0008296515
1.0296,0.003110847
1.0298,0.005046207
1.03,0.005556703
1.0302,0.007367082
1.0304,0.01040182
1.0306,0.01158956
1.0308,0.01394702
1.031,0.01412494
1.0312,0.01518254
1.0314,0.01769945
1.0316,0.02034751
1.0318,0.02132667
1.032,0.02350087
1.0322,0.02544657
1.0324,0.02613839
1.0326,0.02744778
1.0328,0.02712878
1.033,0.02725395
1.0332,0.02821832
1.0334,0.02918471
1.0336,0.03015314
1.0338,0.03135382
1.034,0.03104723
1.0342,0.03115357
1.0344,0.03036524
1.0346,0.03082789
1.0348,0.03216667
1.035,0.03215913
1.0352,0.03058866
1.0354,0.02846506
1.0356,0.02688522
1.0358,0.02647587
1.036,0.02579399
1.0362,0.02467531
1.0364,0.02493227
1.0366,0.0230933
1.0368,0.02188455
1.037,0.02180514
1.0372,0.02076077
1.0374,0.01873526
1.0376,0.01743747
1.0378,0.01571783
1.038,0.01405908
1.0382,0.0106539
1.0384,0.008109699
1.0386,0.005633236
1.0388,0.00422893
1.039,0.002875307
1.0392,0.0004375834
1.0394,0.001330577
1.0396,-0.0003319554
1.0398,-0.001665818
1.04,-0.003737537
1.0402,-0.006255253
1.0404,-0.009062665
1.0406,-0.01144842
1.0408,-0.01294969
1.041,-0.01379649
1.0412,-0.0163669
1.0414,-0.0178633
1.0416,-0.01935054
1.0418,-0.02189204
1.042,-0.02324323
1.0422,-0.02366578
1.0424,-0.02483748
1.0426,-0.02714235
1.0428,-0.02772727
1.043,-0.02877961
1.0432,-0.02917319
1.0434,-0.03055191
1.0436,-0.03008595
1.0438,-0.03062849
1.044,-0.02954746
1.0442,-0.02797224
1.0444,-0.03090259
1.0446,-0.03235659
1.0448,-0.03181413
1.045,-0.03206601
1.0452,-0.03228265
1.0454,-0.03083124
1.0456,-0.02948206
1.0458,-0.03097396
1.046,-0.03078003
1.0462,-0.0297842
1.0464,-0.02940102
1.0466,-0.02779673
1.0468,-0.02528085
1.047,-0.02344309
1.0472,-0.02060392
1.0474,-0.01986484
1.0476,-0.01718979
1.0478,-0.01499853
1.048,-0.0134727
1.0482,-0.01052678
1.0484,-0.008845164
1.0486,-0.007956523
1.0488,-0.005784904
1.049,-0.003111872
1.0492,-0.0003389785
1.0494,0.003417591
1.0496,0.004073896
1.0498,0.00397982
1.05,0.005437418
1.0502,0.009101212
1.0504,0.01105215
1.0506,0.01316931
1.0508,0.01685531
1.051,0.01717565
1.0512,0.01818494
1.0514,0.0200634
1.0516,0.02331838
1.0518,0.02618537
1.052,0.0269936
1.0522,0.02690283
1.0524,0.02826116
1.0526,0.02938045
1.0528,0.03037785
1.053,0.03234427
1.0532,0.03339925
1.0534,0.03317485
1.0536,0.03328476
1.0538,0.03514624
1.054,0.03417355
1.0542,0.03332313
1.0544,0.03306788
1.0546,0.03163303
1.0548,0.03188832
1.055,0.03097053
1.0552,0.03062615
1.0554,0.02866588
1.0556,0.02766648
1.0558,0.02762704
1.056,0.02689206
1.0562,0.02575709
1.0564,0.02437989
1.0566,0.02193071
1.0568,0.02053836
1.057,0.02045356
1.0572,0.0188257
1.0574,0.01628708
1.0576,0.0140962
1.0578,0.01393955
1.058,0.01354573
1.0582,0.01093319
1.0584,0.007961483
1.0586,0.005236009
1.0588,0.003983708
1.059,0.002659827
1.0592,0.001549178
1.0594,0.0004743221
1.0596,-0.001269933
1.0598,-0.002258178
1.06,-0.003729005
1.0602,-0.00639296
1.0604,-0.00911443
1.0606,-0.01136105
1.0608,-0.01346746
1.061,-0.01475065
1.0612,-0.01564307
1.0614,-0.01748434
1.0616,-0.02003511
1.0618,-0.02319526
1.062,-0.02520056
1.0622,-0.02717905
1.0624,-0.02923491
1.0626,-0.02814185
1.0628,-0.02792188
1.063,-0.0301041
1.0632,-0.03060666
1.0634,-0.03117215
1.0636,-0.03067223
1.0638,-0.03033094
1.064,-0.03279095
1.0642,-0.03230599
1.0644,-0.03155198
1.0646,-0.03061233
1.0648,-0.03062399
1.065,-0.03001837
1.0652,-0.029457
1.0654,-0.02924503
1.0656,-0.02915405
1.0658,-0.02889946
1.066,-0.02865366
1.0662,-0.02880326
1.0664,-0.02921384
1.0666,-0.02767583
1.0668,-0.02626302
1.067,-0.02490987
1.0672,-0.02246383
1.0674,-0.01971109
1.0676,-0.01715263
1.0678,-0.01576735
1.068,-0.01334308
1.0682,-0.0110001
1.0684,-0.008452806
1.0686,-0.00578921
1.0688,-0.004543261
1.069,-0.002010445
1.0692,-0.0009123586
1.0694,0.000215396
1.0696,0.001137635
1.0698,0.002734501
1.07,0.004087781
1.0702,0.006270949
1.0704,0.007940013
1.0706,0.01066776
1.0708,0.01392556
1.071,0.01574169
1.0712,0.01971855
1.0714,0.02272773
1.0716,0.02315533
1.0718,0.02423432
1.072,0.02667441
1.0722,0.02838035
1.0724,0.02846521
1.0726,0.02611199
1.0728,0.02668051
1.073,0.02754038
1.0732,0.02936032
1.0734,0.02960995
1.0736,0.03162576
1.0738,0.03384757
1.074,0.03342055
1.0742,0.0310973
1.0744,0.02788901
1.0746,0.02836215
1.0748,0.02822318
1.075,0.02821633
1.0752,0.02811252
1.0754,0.02851933
1.0756,0.02847846
1.0758,0.02703487
1.076,0.02504338
1.0762,0.02338874
1.0764,0.0249318
1.0766,0.02537838
1.0768,0.02366322
1.077,0.02243508
1.0772,0.02082154
1.0774,0.01751645
1.0776,0.01541048
1.0778,0.01346717
1.078,0.01128384
1.0782,0.01008956
1.0784,0.008095782
1.0786,0.005878413
1.0788,0.005944578
1.079,0.004375295
1.0792,0.002640177
1.0794,0.001172777
1.0796,-0.0001831289
1.0798,-0.0009787256
1.08,-0.001902406
1.0802,-0.002376423
1.0804,-0.004714623
1.0806,-0.009050541
1.0808,-0.01413612
1.081,-0.01604973
1.0812,-0.0171744
1.0814,-0.02006443
1.0816,-0.02233486
1.0818,-0.02112348
1.082,-0.0220046
1.0822,-0.02427746
1.0824,-0.02654759
1.0826,-0.02882789
1.0828,-0.03030533
1.083,-0.03224454
1.0832,-0.03272816
1.0834,-0.03328552
1.0836,-0.03408146
1.0838,-0.03354984
1.084,-0.03482741
1.0842,-0.03541536
1.0844,-0.03710661
1.0846,-0.03805975
1.0848,-0.03600579
1.085,-0.03441301
1.0852,-0.0328759
1.0854,-0.03251401
1.0856,-0.03188811
1.0858,-0.03125745
1.086,-0.03060057
1.0862,-0.02860232
1.0864,-0.0264245
1.0866,-0.02302189
1.0868,-0.02107977
1.087,-0.02007826
1.0872,-0.01917662
1.0874,-0.017255
1.0876,-0.01588491
1.0878,-0.0144392
1.088,-0.01156829
1.0882,-0.008439546
1.0884,-0.006222945
1.0886,-0.003153475
1.0888,-0.0003661321
1.089,0.0009593547
1.0892,0.003224134
1.0894,0.004864897
1.0896,0.00525621
1.0898,0.004767014
1.09,0.006142546
1.0902,0.01005934
1.0904,0.01102255
1.0906,0.01156118
1.0908,0.01273403
1.091,0.0129993
1.0912,0.01414044
1.0914,0.01789233
1.0916,0.01961048
1.0918,0.02186741
1.092,0.02373946
1.0922,0.02273599
1.0924,0.02329101
1.0926,0.0248699
1.0928,0.02626691
1.093,0.02659772
1.0932,0.03013672
1.0934,0.03022781
1.0936,0.02896055
1.0938,0.03025248
1.094,0.03176521
1.0942,0.03184164
1.0944,0.03096039
1.0946,0.02978739
1.0948,0.02881561
1.095,0.0285038
1.0952,0.02922066
1.0954,0.03059156
1.0956,0.02929679
1.0958,0.02874125
1.096,0.02736319
1.0962,0.02610003
1.0964,0.02615468
1.0966,0.024401
1.0968,0.02224715
1.097,0.02128083
1.0972,0.01998178
1.0974,0.01817819
1.0976,0.01815669
1.0978,0.01622284
1.098,0.01284703
1.0982,0.009711015
1.0984,0.008927057
1.0986,0.007186999
1.0988,0.004505449
1.099,0.001523832
1.0992,-0.000589638
1.0994,-0.0007320424
1.0996,-0.002023511
1.0998,-0.003459593
1.1,-0.004495324
1.1002,-0.006831303
1.1004,-0.0091676
1.1006,-0.01158734
1.1008,-0.0132577
1.101,-0.01573505
1.1012,-0.0177294
1.1014,-0.01867833
1.1016,-0.02133463
1.1018,-0.02261698
1.102,-0.02332431
1.1022,-0.02377359
1.1024,-0.02416042
1.1026,-0.02373035
1.1028,-0.02513671
1.103,-0.02676581
1.1032,-0.02777723
1.1034,-0.02801071
1.1036,-0.02736091
1.1038,-0.02778311
1.104,-0.028563
1.1042,-0.03086459
1.1044,-0.03139079
1.1046,-0.03133181
1.1048,-0.03044311
1.105,-0.02970724
1.1052,-0.03010542
1.1054,-0.03037071
1.1056,-0.03042303
1.1058,-0.03043123
1.106,-0.02985222
1.1062,-0.02709179
1.1064,-0.0272246
1.1066,-0.02606078
1.1068,-0.02339113
1.107,-0.02171455
1.1072,-0.01969123
1.1074,-0.01706508
1.1076,-0.0144183
1.1078,-0.01596019
1.108,-0.01301199
1.1082,-0.009651931
1.1084,-0.009253534
1.1086,-0.008184998
1.1088,-0.006266258
1.109,-0.003146302
1.1092,-0.0007825293
1.1094,0.001389195
1.1096,0.002525729
1.1098,0.003508745
1.11,0.005739388
1.1102,0.009581969
1.1104,0.01275308
1.1106,0.01417612
1.1108,0.01736027
1.111,0.01791852
1.1112,0.01867338
1.1114,0.01867491
1.1116,0.0207117
1.1118,0.0228808
1.112,0.02503955
1.1122,0.02712923
1.1124,0.02728141
1.1126,0.02857158
1.1128,0.02943728
1.113,0.03117586
1.1132,0.03235894
1.1134,0.03226209
1.1136,0.03152636
1.1138,0.03021929
1.114,0.03090064
1.1142,0.03136034
1.1144,0.03038463
1.1146,0.02833644
1.1148,0.02804835
1.115,0.02714224
1.1152,0.02555837
1.1154,0.02561208
1.1156,0.02585655
1.1158,0.02476946
1.116,0.02340529
1.1162,0.02344095
1.1164,0.0217933
1.1166,0.02077275
1.1168,0.01818952
1.117,0.01842232
1.1172,0.01884234
1.1174,0.0166824
1.1176,0.01555229
1.1178,0.01316735
1.118,0.01267999
1.1182,0.009979645
1.1184,0.007940214
1.1186,0.005775943
1.1188,0.004506093
1.119,0.001389943
1.1192,0.0001389178
1.1194,0.0003278352
1.1196,-0.001600961
1.1198,-0.002613358
1.12,-0.004594118
1.1202,-0.00575504
1.1204,-0.008900451
1.1206,-0.01120268
1.1208,-0.01284172
1.121,-0.01282467
1.1212,-0.01485331
1.1214,-0.01750178
1.1216,-0.01890264
1.1218,-0.01991961
1.122,-0.0195489
1.1222,-0.02002735
1.1224,-0.02082426
1.1226,-0.02221312
1.1228,-0.02491091
1.123,-0.02743468
1.1232,-0.02880219
1.1234,-0.02937329
1.1236,-0.02850828
1.1238,-0.02925307
1.124,-0.0340019
1.1242,-0.03688926
1.1244,-0.0395358
1.1246,-0.04140173
1.1248,-0.04059026
1.125,-0.03831934
1.1252,-0.03606516
1.1254,-0.03581819
1.1256,-0.03318653
1.1258,-0.03093313
1.126,-0.0290034
1.1262,-0.02879347
1.1264,-0.02733903
1.1266,-0.02664077
1.1268,-0.02546096
1.127,-0.02382985
1.1272,-0.02227581
1.1274,-0.02059682
1.1276,-0.01912715
1.1278,-0.01703271
1.128,-0.01493138
1.1282,-0.01221916
1.1284,-0.01052195
1.1286,-0.009278037
1.1288,-0.005721222
1.129,-0.001339177
1.1292,0.001366448
1.1294,0.003146586
1.1296,0.003636473
1.1298,0.005314004
1.13,0.008727383
1.1302,0.0110986
1.1304,0.01274115
1.1306,0.01285272
1.1308,0.01385237
1.131,0.01486495
1.1312,0.0157059
1.1314,0.01823118
1.1316,0.02020739
1.1318,0.02366614
1.132,0.02411073
1.1322,0.02536004
1.1324,0.02636435
1.1326,0.02838765
1.1328,0.02949372
1.133,0.03127047
1.1332,0.03143668
1.1334,0.03259733
1.1336,0.03413437
1.1338,0.03232327
1.134,0.03311016
1.1342,0.03259084
1.1344,0.032183
1.1346,0.03341373
1.1348,0.03154179
1.135,0.02938998
1.1352,0.03059671
1.1354,0.03102406
1.1356,0.02952062
1.1358,0.02815843
1.136,0.02577488
1.1362,0.02401143
1.1364,0.02348492
1.1366,0.02378225
1.1368,0.02126026
1.137,0.01988276
1.1372,0.01960199
1.1374,0.01876893
1.1376,0.01539996
1.1378,0.01273169
1.138,0.01011901
1.1382,0.009874431
1.1384,0.007436149
1.1386,0.00475002
1.1388,0.004518658
1.139,0.001352772
1.1392,-0.001572732
1.1394,-0.001984554
1.1396,-0.002660564
1.1398,-0.004102146
1.14,-0.005362927
1.1402,-0.008024029
1.1404,-0.009482589
1.1406,-0.01260966
1.1408,-0.01517202
1.141,-0.01472955
1.1412,-0.01505637
1.1414,-0.01685444
1.1416,-0.01927805
1.1418,-0.02300338
1.142,-0.02560005
1.1422,-0.02646396
1.1424,-0.02751448
1.1426,-0.02891375
1.1428,-0.03092755
1.143,-0.03143057
1.1432,-0.03096453
1.1434,-0.03070893
1.1436,-0.03004342
1.1438,-0.02937236
1.144,-0.03124455
1.1442,-0.03189044
1.1444,-0.03187316
1.1446,-0.03057067
1.1448,-0.02840385
1.145,-0.02698103
1.1452,-0.0271224
1.1454,-0.02707448
1.1456,-0.02728017
1.1458,-0.02549813
1.146,-0.02311796
1.1462,-0.02317596
1.1464,-0.02375664
1.1466,-0.02281873
1.1468,-0.02035912
1.147,-0.02069711
1.1472,-0.02014216
1.1474,-0.01570794
1.1476,-0.01306074
1.1478,-0.01299909
1.148,-0.01153288
1.1482,-0.009263581
1.1484,-0.006571253
1.1486,-0.003849615
1.1488,-0.0009733033
1.149,0.002737202
1.1492,0.004929223
1.1494,0.005390116
1.1496,0.006840041
1.1498,0.008324172
1.15,0.01135482
1.1502,0.01383828
1.1504,0.01735796
1.1506,0.01793615
1.1508,0.01828174
1.151,0.01852977
1.1512,0.01940532
1.1514,0.02111017
1.1516,0.02311173
1.1518,0.0249878
1.152,0.02640385
1.1522,0.02650264
1.1524,0.02609079
1.1526,0.02612693
1.1528,0.0254249
1.153,0.02557651
1.1532,0.02625634
1.1534,0.02823095
1.1536,0.02739769
1.1538,0.02657332
1.154,0.02715929
1.1542,0.02786636
1.1544,0.02733616
1.1546,0.02671289
1.1548,0.02635826
1.155,0.02588128
1.1552,0.02581336
1.1554,0.02463771
1.1556,0.02291468
1.1558,0.02265807
1.156,0.02230809
1.1562,0.02256801
1.1564,0.02327626
1.1566,0.02310046
1.1568,0.02229921
1.157,0.02256207
1.1572,0.02187001
1.1574,0.01899533
1.1576,0.01619897
1.1578,0.01330111
1.158,0.01046587
1.1582,0.00862272
1.1584,0.006999319
1.1586,0.005888294
1.1588,0.004375058
1.159,0.003692231
1.1592,0.002194804
1.1594,-0.000438776
1.1596,-0.0006141032
1.1598,-0.002906263
1.16,-0.004802904
1.1602,-0.005519915
1.1604,-0.007993464
1.1606,-0.009592705
1.1608,-0.01166545
1.161,-0.01349267
1.1612,-0.01485371
1.1614,-0.01693906
1.1616,-0.021054
1.1618,-0.02273119
1.162,-0.02406988
1.1622,-0.02695877
1.1624,-0.02817848
1.1626,-0.02897611
1.1628,-0.03001589
1.163,-0.03174425
1.1632,-0.03186958
1.1634,-0.03225856
1.1636,-0.03408103
1.1638,-0.03398007
1.164,-0.03246009
1.1642,-0.03283539
1.1644,-0.03282111
1.1646,-0.03298597
1.1648,-0.03388632
1.165,-0.03251271
1.1652,-0.03055455
1.1654,-0.02955863
1.1656,-0.0286247
1.1658,-0.02810145
1.166,-0.02717483
1.1662,-0.02701126
1.1664,-0.02570036
1.1666,-0.02571089
1.1668,-0.02358957
1.167,-0.02153146
1.1672,-0.01981436
1.1674,-0.016744
1.1676,-0.01210735
1.1678,-0.01127836
1.168,-0.01041031
1.1682,-0.007925455
1.1684,-0.006388651
1.1686,-0.004621235
1.1688,-0.0008908013
1.169,0.00113443
1.1692,0.002287592
1.1694,0.003439064
1.1696,0.00558496
1.1698,0.006343775
1.17,0.008017265
1.1702,0.009683265
1.1704,0.01148346
1.1706,0.01232812
1.1708,0.0137824
1.171,0.0164139
1.1712,0.01802937
1.1714,0.02018949
1.1716,0.02129713
1.1718,0.02239398
1.172,0.0238997
1.1722,0.02521905
1.1724,0.02606572
1.1726,0.02543224
1.1728,0.02572545
1.173,0.02661856
1.1732,0.02713653
1.1734,0.02769541
1.1736,0.02793936
1.1738,0.02770023
1.174,0.02710198
1.1742,0.02949281
1.1744,0.02899615
1.1746,0.0283745
1.1748,0.02798003
1.175,0.02893865
1.1752,0.03037223
1.1754,0.02915085
1.1756,0.02793332
1.1758,0.02605405
1.176,0.0246134
1.1762,0.02483095
1.1764,0.02644465
1.1766,0.02529087
1.1768,0.02482831
1.177,0.02357229
1.1772,0.02068783
1.1774,0.01874233
1.1776,0.01795218
1.1778,0.01712872
1.178,0.01402862
1.1782,0.0112897
1.1784,0.007718703
1.1786,0.005292003
1.1788,0.002532823
1.179,0.0005711429
1.1792,-0.002289214
1.1794,-0.004155371
1.1796,-0.004804555
1.1798,-0.005129803
1.18,-0.006551615
1.1802,-0.009345064
1.1804,-0.008995557
1.1806,-0.01105423
1.1808,-0.01200875
1.181,-0.01351579
1.1812,-0.01654566
1.1814,-0.01825073
1.1816,-0.01972958
1.1818,-0.02072311
1.182,-0.02291032
1.1822,-0.02512534
1.1824,-0.0264067
1.1826,-0.02629033
1.1828,-0.02767504
1.183,-0.02939045
1.1832,-0.03040924
1.1834,-0.03137048
1.1836,-0.03171308
1.1838,-0.0326273
1.184,-0.03333347
1.1842,-0.03198533
1.1844,-0.03036424
1.1846,-0.02973852
1.1848,-0.02858212
1.185,-0.028498
1.1852,-0.02873527
1.1854,-0.02754336
1.1856,-0.02744251
1.1858,-0.02551308
1.186,-0.02414194
1.1862,-0.02358272
1.1864,-0.02323084
1.1866,-0.02154665
1.1868,-0.0188622
1.187,-0.01593595
1.1872,-0.01402812
1.1874,-0.01339386
1.1876,-0.01318115
1.1878,-0.01325472
1.188,-0.009023262
1.1882,-0.005970452
1.1884,-0.005061587
1.1886,-0.002717928
1.1888,-0.001884042
1.189,-0.001053766
1.1892,-9.056255e-05
1.1894,0.001498146
1.1896,0.003112046
1.1898,0.00505738
1.19,0.007548894
1.1902,0.008973457
1.1904,0.01127722
1.1906,0.01343024
1.1908,0.01467816
1.191,0.01509275
1.1912,0.01592865
1.1914,0.01759051
1.1916,0.01858485
1.1918,0.02038978
1.192,0.02194447
1.1922,0.0231339
1.1924,0.02468967
1.1926,0.02707489
1.1928,0.02881102
1.193,0.03040017
1.1932,0.03037573
1.1934,0.03037691
1.1936,0.02981571
1.1938,0.03010137
1.194,0.03075251
1.1942,0.03109363
1.1944,0.03073493
1.1946,0.03006068
1.1948,0.02825003
1.195,0.02731281
1.1952,0.02756299
1.1954,0.02751655
1.1956,0.02853722
1.1958,0.02785289
1.196,0.02779332
1.1962,0.02625071
1.1964,0.02542095
1.1966,0.02287175
1.1968,0.02002136
1.197,0.02043298
1.1972,0.01997815
1.1974,0.01725248
1.1976,0.01632818
1.1978,0.01625322
1.198,0.01343411
1.1982,0.01193403
1.1984,0.008486071
1.1986,0.004478773
1.1988,0.001794488
1.199,0.000227237
1.1992,-0.0004361968
1.1994,-0.003467713
1.1996,-0.005364682
1.1998,-0.007330494
1.2,-0.008167661
1.2002,-0.0098153
1.2004,-0.012754
1.2006,-0.01455735
1.2008,-0.01571795
1.201,-0.01611703
1.2012,-0.0176176
1.2014,-0.019414
1.2016,-0.02207278
1.2018,-0.02426159
1.202,-0.02597941
1.2022,-0.02834312
1.2024,-0.0285755
1.2026,-0.02922837
1.2028,-0.03032128
1.203,-0.03151186
1.2032,-0.03333814
1.2034,-0.03463416
1.2036,-0.03363938
1.2038,-0.03433717
1.204,-0.03549779
1.2042,-0.03520351
1.2044,-0.03314231
1.2046,-0.03193878
1.2048,-0.03174012
1.205,-0.03076961
1.2052,-0.03199226
1.2054,-0.03109265
1.2056,-0.03092552
1.2058,-0.02936302
1.206,-0.02633896
1.2062,-0.02556695
1.2064,-0.02611411
1.2066,-0.02488043
1.2068,-0.02263071
1.207,-0.02035729
1.2072,-0.01770632
1.2074,-0.01625534
1.2076,-0.0150349
1.2078,-0.01287058
1.208,-0.009985039
1.2082,-0.00812257
1.2084,-0.006235715
1.2086,-0.003745171
1.2088,-0.001332031
1.209,0.0005294098
1.2092,0.002423383
1.2094,0.003659562
1.2096,0.003981448
1.2098,0.004692405
1.21,0.007059675
1.2102,0.00882476
1.2104,0.01045476
1.2106,0.01106267
1.2108,0.01274273
1.211,0.01473741
1.2112,0.01751814
1.2114,0.01923821
1.2116,0.02070869
1.2118,0.02055428
1.212,0.02278879
1.2122,0.02545844
1.2124,0.02742841
1.2126,0.02839501
1.2128,0.02951767
1.213,0.03021505
1.2132,0.03057046
1.2134,0.03005843
1.2136,0.0298124
1.2138,0.03179488
1.214,0.032142
1.2142,0.03218658
1.2144,0.03184296
1.2146,0.03183536
1.2148,0.0335281
1.215,0.03294628
1.2152,0.03281604
1.2154,0.03207944
1.2156,0.03303871
1.2158,0.03237125
1.216,0.03027661
1.2162,0.03025277
1.2164,0.02856737
1.2166,0.02551219
1.2168,0.02294867
1.217,0.02085217
1.2172,0.01864258
1.2174,0.01753715
1.2176,0.01486876
1.2178,0.01307871
1.218,0.01077341
1.2182,0.01013098
1.2184,0.008663544
1.2186,0.005444264
1.2188,0.003274699
1.219,0.002047292
1.2192,0.001175718
1.2194,-0.001963208
1.2196,-0.003457688
1.2198,-0.005895074
1.22,-0.008999135
1.2202,-0.01112393
1.2204,-0.01129907
1.2206,-0.01142881
1.2208,-0.01353737
1.221,-0.01645191
1.2212,-0.0175738
1.2214,-0.01782818
1.2216,-0.01987941
1.2218,-0.02269378
1.222,-0.02440114
1.2222,-0.02560623
1.2224,-0.02555245
1.2226,-0.02686486
1.2228,-0.0283991
1.223,-0.029024
1.2232,-0.02893228
1.2234,-0.02935375
1.2236,-0.02998139
1.2238,-0.02930569
1.224,-0.02801444
1.2242,-0.02752344
1.2244,-0.0278756
1.2246,-0.02782631
1.2248,-0.02805238
1.225,-0.02817208
1.2252,-0.02785021
1.2254,-0.02897893
1.2256,-0.02852935
1.2258,-0.02619959
1.226,-0.02664828
1.2262,-0.02607149
1.2264,-0.02542473
1.2266,-0.02451047
1.2268,-0.023403
1.227,-0.02116065
1.2272,-0.02144959
1.2274,-0.01991249
1.2276,-0.01881646
1.2278,-0.01776995
1.228,-0.0152072
1.2282,-0.01156646
1.2284,-0.009796022
1.2286,-0.007828891
1.2288,-0.005065198
1.229,-0.001274764
1.2292,0.00207664
1.2294,0.002678159
1.2296,0.004312891
1.2298,0.006550562
1.23,0.009863314
1.2302,0.01187333
1.2304,0.01356987
1.2306,0.01539126
1.2308,0.01738464
1.231,0.01778136
1.2312,0.01636334
1.2314,0.01722059
1.2316,0.01945892
1.2318,0.02256479
1.232,0.02479004
1.2322,0.02550241
1.2324,0.02723204
1.2326,0.02814486
1.2328,0.0293868
1.233,0.0317387
1.2332,0.03225179
1.2334,0.03042194
1.2336,0.02898734
1.2338,0.02975812
1.234,0.03046939
1.2342,0.02927953
1.2344,0.02779127
1.2346,0.02775244
1.2348,0.02886893
1.235,0.0300853
1.2352,0.02903857
1.2354,0.03041873
1.2356,0.03064056
1.2358,0.02845246
1.236,0.02723636
1.2362,0.02573665
1.2364,0.02389093
1.2366,0.02238664
1.2368,0.02119567
1.237,0.01987173
1.2372,0.01803758
1.2374,0.0160418
1.2376,0.0151446
1.2378,0.01422496
1.238,0.01144037
1.2382,0.008128332
1.2384,0.005457323
1.2386,0.003855849
1.2388,0.004197596
1.239,0.001784238
1.2392,-0.002084577
1.2394,-0.004672019
1.2396,-0.005960403
1.2398,-0.008089847
1.24,-0.01005505
1.2402,-0.01090245
1.2404,-0.01543194
1.2406,-0.01816535
1.2408,-0.01965814
1.241,-0.0198551
1.2412,-0.02135939
1.2414,-0.0226821
1.2416,-0.02203924
1.2418,-0.02301786
1.242,-0.02391681
1.2422,-0.02559902
1.2424,-0.02570449
1.2426,-0.0247725
1.2428,-0.02403404
1.243,-0.02413296
1.2432,-0.02708369
1.2434,-0.0288629
1.2436,-0.0292506
1.2438,-0.02950953
1.244,-0.03026583
1.2442,-0.03009788
1.2444,-0.02935011
1.2446,-0.03032165
1.2448,-0.0293593
1.245,-0.02967483
1.2452,-0.0278005
1.2454,-0.02763925
1.2456,-0.02770307
1.2458,-0.02558655
1.246,-0.02667102
1.2462,-0.02728175
1.2464,-0.02960705
1.2466,-0.02771888
1.2468,-0.02504324
1.247,-0.02234748
1.2472,-0.02115175
1.2474,-0.02068264
1.2476,-0.01952828
1.2478,-0.01774456
1.248,-0.01442438
1.2482,-0.01139535
1.2484,-0.007466959
1.2486,-0.005246692
1.2488,-0.002695579
1.249,-0.0005778402
1.2492,0.002140926
1.2494,0.003386774
1.2496,0.002530585
1.2498,0.003693419
1.25,0.006615973
1.2502,0.008368309
1.2504,0.01019135
1.2506,0.01421937
1.2508,0.01763406
1.251,0.01911606
1.2512,0.01910252
1.2514,0.01926823
1.2516,0.02205824
1.2518,0.02602415
1.252,0.02739148
1.2522,0.02875239
1.2524,0.02980502
1.2526,0.02837442
1.2528,0.02768202
1.253,0.0304598
1.2532,0.03039266
1.2534,0.0300185
1.2536,0.0316444
1.2538,0.03144713
1.254,0.02997346
1.2542,0.02791244
1.2544,0.027311
1.2546,0.02791793
1.2548,0.02727029
1.255,0.0289237
1.2552,0.02821267
1.2554,0.02746843
1.2556,0.0263903
1.2558,0.02615543
1.256,0.02559298
1.2562,0.02492017
1.2564,0.02537923
1.2566,0.0231841
1.2568,0.02185157
1.257,0.02107944
1.2572,0.02122252
1.2574,0.020465
1.2576,0.01863417
1.2578,0.01732895
1.258,0.01410569
1.2582,0.01162318
1.2584,0.008290548
1.2586,0.007924526
1.2588,0.006938741
1.259,0.00381455
1.2592,0.002247355
1.2594,0.001827022
1.2596,0.001289549
1.2598,-0.0001388259
1.26,-0.001072236
1.2602,-0.005540387
1.2604,-0.009677307
1.2606,-0.01090051
1.2608,-0.01311999
1.261,-0.01456689
1.2612,-0.01651916
1.2614,-0.01762161
1.2616,-0.01959737
1.2618,-0.0218652
1.262,-0.02381634
1.2622,-0.02407769
1.2624,-0.02446041
1.2626,-0.02539567
1.2628,-0.02746489
1.263,-0.02881241
1.2632,-0.02843687
1.2634,-0.02973381
1.2636,-0.02926955
1.2638,-0.02853438
1.264,-0.02870798
1.2642,-0.02907203
1.2644,-0.0296946
1.2646,-0.02919203
1.2648,-0.02855418
1.265,-0.02783901
1.2652,-0.02650512
1.2654,-0.02710048
1.2656,-0.02638299
1.2658,-0.02691864
1.266,-0.02678803
1.2662,-0.02724971
1.2664,-0.02617865
1.2666,-0.02296943
1.2668,-0.01987831
1.267,-0.02063632
1.2672,-0.02096219
1.2674,-0.01813012
1.2676,-0.01776927
1.2678,-0.01652726
1.268,-0.01598492
1.2682,-0.01558734
1.2684,-0.01152777
1.2686,-0.01037723
1.2688,-0.009904829
1.269,-0.00735828
1.2692,-0.005078795
1.2694,-0.00439366
1.2696,-0.00253696
1.2698,0.000931958
1.27,0.003920394
1.2702,0.007437753
1.2704,0.00938106
1.2706,0.01110287
1.2708,0.01295628
1.271,0.0137573
1.2712,0.01419516
1.2714,0.01620767
1.2716,0.01762504
1.2718,0.01997647
1.272,0.02109189
1.2722,0.02179602
1.2724,0.02240034
1.2726,0.02336521
1.2728,0.02326658
1.273,0.02346657
1.2732,0.02575536
1.2734,0.02583972
1.2736,0.02720682
1.2738,0.02883915
1.274,0.02913772
1.2742,0.02935851
1.2744,0.0306896
1.2746,0.03142322
1.2748,0.03047359
1.275,0.02890254
1.2752,0.03161389
1.2754,0.03158353
1.2756,0.03147467
1.2758,0.02993315
1.276,0.02961618
1.2762,0.02849213
1.2764,0.02835121
1.2766,0.02627889
1.2768,0.02474584
1.277,0.02374797
1.2772,0.02220337
1.2774,0.02072436
1.2776,0.01992393
1.2778,0.01704662
1.278,0.01578783
1.2782,0.014725
1.2784,0.01102491
1.2786,0.008668636
1.2788,0.007535819
1.279,0.005119468
1.2792,0.003144232
1.2794,0.003093615
1.2796,0.002460539
1.2798,0.0003400155
1.28,-0.002243071
1.2802,-0.002259976
1.2804,-0.005488667
1.2806,-0.01117023
1.2808,-0.01556251
1.281,-0.02002902
1.2812,-0.02286967
1.2814,-0.02592332
1.2816,-0.02713325
1.2818,-0.02791158
1.282,-0.02902759
1.2822,-0.02938088
1.2824,-0.03025232
1.2826,-0.03122027
1.2828,-0.03056296
1.283,-0.03050368
1.2832,-0.03089374
1.2834,-0.03044888
1.2836,-0.03122126
1.2838,-0.03280706
1.284,-0.03267479
1.2842,-0.03275846
1.2844,-0.03130514
1.2846,-0.03094249
1.2848,-0.03062339
1.285,-0.03060656
1.2852,-0.02934306
1.2854,-0.02701171
1.2856,-0.02609169
1.2858,-0.02439722
1.286,-0.02531067
1.2862,-0.02533323
1.2864,-0.0248188
1.2866,-0.02200942
1.2868,-0.01877079
1.287,-0.01929919
1.2872,-0.01907599
1.2874,-0.01669994
1.2876,-0.01428488
1.2878,-0.01213906
1.288,-0.01027799
1.2882,-0.007267757
1.2884,-0.004364769
1.2886,-0.003609702
1.2888,-0.00100968
1.289,0.000589191
1.2892,0.00174663
1.2894,0.004610404
1.2896,0.006046908
1.2898,0.007056594
1.29,0.007645384
1.2902,0.008956824
1.2904,0.01055455
1.2906,0.01327931
1.2908,0.01449112
1.291,0.01593694
1.2912,0.01749256
1.2914,0.0199197
1.2916,0.0229843
1.2918,0.02565766
1.292,0.02816235
1.2922,0.02942006
1.2924,0.02957721
1.2926,0.02920193
1.2928,0.02943777
1.293,0.03129955
1.2932,0.0329362
1.2934,0.0334278
1.2936,0.03322284
1.2938,0.03268709
1.294,0.03234931
1.2942,0.032286
1.2944,0.03007992
1.2946,0.02835881
1.2948,0.02836912
1.295,0.02748942
1.2952,0.02513152
1.2954,0.02350371
1.2956,0.02268243
1.2958,0.02319438
1.296,0.02311947
1.2962,0.02209878
1.2964,0.02260881
1.2966,0.02358062
1.2968,0.02367152
1.297,0.02247746
1.2972,0.01976298
1.2974,0.01750388
1.2976,0.01480693
1.2978,0.0125337
1.298,0.009285268
1.2982,0.005249759
1.2984,0.002849275
1.2986,0.0006112158
1.2988,-0.0004384379
1.299,-0.001950631
1.2992,-0.004592051
1.2994,-0.004938628
1.2996,-0.007414566
1.2998,-0.009299402
1.3,-0.01157129
1.3002,-0.01355023
1.3004,-0.01492454
1.3006,-0.01580889
1.3008,-0.01661687
1.301,-0.01839231
1.3012,-0.01977084
1.3014,-0.02112896
1.3016,-0.02110214
1.3018,-0.02060698
1.302,-0.0231559
1.3022,-0.02434579
1.3024,-0.02522711
1.3026,-0.02639351
1.3028,-0.02690212
1.303,-0.02800599
1.3032,-0.02773137
1.3034,-0.02673652
1.3036,-0.02536332
1.3038,-0.02531363
1.304,-0.02653575
1.3042,-0.02794921
1.3044,-0.02913112
1.3046,-0.02776667
1.3048,-0.02789674
1.305,-0.02840129
1.3052,-0.02767484
1.3054,-0.02820984
1.3056,-0.02613874
1.3058,-0.02551498
1.306,-0.0248918
1.3062,-0.02392268
1.3064,-0.02300094
1.3066,-0.02084515
1.3068,-0.02015539
1.307,-0.01815049
1.3072,-0.01630225
1.3074,-0.01479422
1.3076,-0.01241742
1.3078,-0.01179835
1.308,-0.01061181
