Source File Name:	Scan
Signal:	Time - Ref1 Voltage - Samples

Time	Time Signal
[ s ]	[ V ]
0	-0.000201617
8e-5	-0.0001538559
0.00016	-0.0007866403
0.00024	-0.001466979
0.00032	-0.002203386
0.0004	-0.003156319
0.00048	-0.00396565
0.00056	-0.004593873
0.00064	-0.005451533
0.00072	-0.005607892
0.0008	-0.005600053
0.00088	-0.005572236
0.00096	-0.005496314
0.00104	-0.005976281
0.00112	-0.006354601
0.0012	-0.006491126
0.00128	-0.00673042
0.00136	-0.007485774
0.00144	-0.007449931
0.00152	-0.007242952
0.0016	-0.007053008
0.00168	-0.006542985
0.00176	-0.006502818
0.00184	-0.006283638
0.00192	-0.005775991
0.002	-0.005319811
0.00208	-0.00426012
0.00216	-0.003904081
0.00224	-0.004621671
0.00232	-0.005444777
0.0024	-0.006269411
0.00248	-0.007054793
0.00256	-0.007293681
0.00264	-0.007341946
0.00272	-0.006939331
0.0028	-0.006508796
0.00288	-0.00622968
0.00296	-0.00589323
0.00304	-0.006973297
0.00312	-0.008070506
0.0032	-0.008894455
0.00328	-0.01026545
0.00336	-0.01057903
0.00344	-0.01094278
0.00352	-0.0115052
0.0036	-0.01201463
0.00368	-0.01198778
0.00376	-0.01256905
0.00384	-0.01375609
0.00392	-0.01439396
0.004	-0.01521809
0.00408	-0.01565145
0.00416	-0.01513543
0.00424	-0.01471587
0.00432	-0.01511811
0.0044	-0.01526999
0.00448	-0.01533181
0.00456	-0.01573977
0.00464	-0.01557119
0.00472	-0.01578455
0.0048	-0.01616981
0.00488	-0.01646967
0.00496	-0.01661427
0.00504	-0.01577973
0.00512	-0.01490877
0.0052	-0.01444021
0.00528	-0.01406227
0.00536	-0.01418869
0.00544	-0.0137556
0.00552	-0.01370068
0.0056	-0.01328655
0.00568	-0.01282477
0.00576	-0.0119196
0.00584	-0.01085927
0.00592	-0.01008465
0.006	-0.009367807
0.00608	-0.008780556
0.00616	-0.008600325
0.00624	-0.008982779
0.00632	-0.008454308
0.0064	-0.007889505
0.00648	-0.007854966
0.00656	-0.007600178
0.00664	-0.007207793
0.00672	-0.007295702
0.0068	-0.00717938
0.00688	-0.007136559
0.00696	-0.006591551
0.00704	-0.005953664
0.00712	-0.006143759
0.0072	-0.006331983
0.00728	-0.006475522
0.00736	-0.006702609
0.00744	-0.006392501
0.00752	-0.006065358
0.0076	-0.006021602
0.00768	-0.006466893
0.00776	-0.006768184
0.00784	-0.007641101
0.00792	-0.007404536
0.008	-0.006922866
0.00808	-0.007230384
0.00816	-0.007527742
0.00824	-0.007495362
0.00832	-0.007968559
0.0084	-0.008318969
0.00848	-0.007776584
0.00856	-0.007038025
0.00864	-0.005560584
0.00872	-0.004181195
0.0088	-0.003148901
0.00888	-0.002227595
0.00896	-0.001889246
0.00904	-0.001708926
0.00912	-0.001177205
0.0092	-0.0004615777
0.00928	-0.0001576388
0.00936	4.431823e-6
0.00944	0.0003466051
0.00952	0.001397577
0.0096	0.002432908
0.00968	0.002885665
0.00976	0.002927582
0.00984	0.002475247
0.00992	0.001625972
0.01	0.0003586099
0.01008	9.380036e-5
0.01016	0.0002662908
0.01024	0.0007398265
0.01032	0.0005804981
0.0104	0.0004537526
0.01048	0.00079318
0.01056	0.0007177994
0.01064	0.0006630757
0.01072	0.0008039939
0.0108	0.001154948
0.01088	0.00114115
0.01096	0.001357903
0.01104	0.001413641
0.01112	0.001793418
0.0112	0.002386464
0.01128	0.002958426
0.01136	0.003367295
0.01144	0.004092444
0.01152	0.004971584
0.0116	0.005007443
0.01168	0.005553584
0.01176	0.0064472
0.01184	0.006679634
0.01192	0.006959733
0.012	0.00761083
0.01208	0.008488618
0.01216	0.008458301
0.01224	0.008095684
0.01232	0.008095989
0.0124	0.008872134
0.01248	0.009479346
0.01256	0.009774163
0.01264	0.01004308
0.01272	0.01039429
0.0128	0.01105674
0.01288	0.01130942
0.01296	0.01177725
0.01304	0.01225261
0.01312	0.01208332
0.0132	0.01198763
0.01328	0.01214891
0.01336	0.01184247
0.01344	0.01147764
0.01352	0.01118439
0.0136	0.01132967
0.01368	0.01150279
0.01376	0.01156863
0.01384	0.01194905
0.01392	0.01191399
0.014	0.01133519
0.01408	0.01074363
0.01416	0.01007847
0.01424	0.01037891
0.01432	0.01100241
0.0144	0.01138314
0.01448	0.01152737
0.01456	0.01195265
0.01464	0.01240816
0.01472	0.01253659
0.0148	0.0122174
0.01488	0.01174438
0.01496	0.01161249
0.01504	0.01122314
0.01512	0.01098428
0.0152	0.01101471
0.01528	0.01088564
0.01536	0.01121679
0.01544	0.01150859
0.01552	0.0112865
0.0156	0.01122444
0.01568	0.0105624
0.01576	0.0105988
0.01584	0.01100273
0.01592	0.01128054
0.016	0.01232544
0.01608	0.01336588
0.01616	0.0138462
0.01624	0.01385436
0.01632	0.01357804
0.0164	0.01361236
0.01648	0.01378216
0.01656	0.01429534
0.01664	0.01456281
0.01672	0.01492448
0.0168	0.01487492
0.01688	0.01483747
0.01696	0.01402374
0.01704	0.01368734
0.01712	0.01391712
0.0172	0.01394552
0.01728	0.01388853
0.01736	0.01354341
0.01744	0.01287183
0.01752	0.01241633
0.0176	0.01198664
0.01768	0.01125699
0.01776	0.01050992
0.01784	0.009573712
0.01792	0.009078136
0.018	0.008918094
0.01808	0.009361194
0.01816	0.009156274
0.01824	0.008363411
0.01832	0.00797541
0.0184	0.007530998
0.01848	0.006874878
0.01856	0.00617416
0.01864	0.005775222
0.01872	0.0052102
0.0188	0.004565565
0.01888	0.00393353
0.01896	0.004002326
0.01904	0.003694954
0.01912	0.003285433
0.0192	0.003151655
0.01928	0.002584048
0.01936	0.001575304
0.01944	0.0001153316
0.01952	-0.0006852751
0.0196	-0.001202979
0.01968	-0.001737397
0.01976	-0.002153964
0.01984	-0.002345042
0.01992	-0.002541424
0.02	-0.002541942
0.02008	-0.00245757
0.02016	-0.002513811
0.02024	-0.002941892
0.02032	-0.002613028
0.0204	-0.002570942
0.02048	-0.003146197
0.02056	-0.004066964
0.02064	-0.00442562
0.02072	-0.00458566
0.0208	-0.005082157
0.02088	-0.004981683
0.02096	-0.004974261
0.02104	-0.005153755
0.02112	-0.005378654
0.0212	-0.005765114
0.02128	-0.006182119
0.02136	-0.006008639
0.02144	-0.005791365
0.02152	-0.00578468
0.0216	-0.005236111
0.02168	-0.004458435
0.02176	-0.003834489
0.02184	-0.003932
0.02192	-0.004689075
0.022	-0.004954427
0.02208	-0.005350217
0.02216	-0.006292783
0.02224	-0.006841533
0.02232	-0.006952383
0.0224	-0.007555468
0.02248	-0.008062486
0.02256	-0.008438124
0.02264	-0.008526986
0.02272	-0.008601971
0.0228	-0.008706537
0.02288	-0.008910186
0.02296	-0.009634067
0.02304	-0.01022225
0.02312	-0.01085901
0.0232	-0.01105589
0.02328	-0.01160066
0.02336	-0.01225618
0.02344	-0.01288576
0.02352	-0.01266344
0.0236	-0.01194894
0.02368	-0.01176598
0.02376	-0.01207159
0.02384	-0.01212157
0.02392	-0.01253211
0.024	-0.01297178
0.02408	-0.0133104
0.02416	-0.01405944
0.02424	-0.0140178
0.02432	-0.01357366
0.0244	-0.01296252
0.02448	-0.01258536
0.02456	-0.01266236
0.02464	-0.01222072
0.02472	-0.01173911
0.0248	-0.01200696
0.02488	-0.01301713
0.02496	-0.01393927
0.02504	-0.01506318
0.02512	-0.01586548
0.0252	-0.01673927
0.02528	-0.0172717
0.02536	-0.0170277
0.02544	-0.01560302
0.02552	-0.01414746
0.0256	-0.01371151
0.02568	-0.01399743
0.02576	-0.01422733
0.02584	-0.01441264
0.02592	-0.014121
0.026	-0.01320073
0.02608	-0.0125867
0.02616	-0.01157517
0.02624	-0.01047007
0.02632	-0.01029433
0.0264	-0.01035498
0.02648	-0.01133672
0.02656	-0.01221576
0.02664	-0.01266135
0.02672	-0.0132658
0.0268	-0.01294519
0.02688	-0.01151739
0.02696	-0.01071421
0.02704	-0.01022872
0.02712	-0.01029802
0.0272	-0.01082813
0.02728	-0.01062753
0.02736	-0.01035156
0.02744	-0.01028435
0.02752	-0.009901818
0.0276	-0.009175189
0.02768	-0.008587427
0.02776	-0.008696036
0.02784	-0.008836877
0.02792	-0.008740101
0.028	-0.008324531
0.02808	-0.008428349
0.02816	-0.008137115
0.02824	-0.007367896
0.02832	-0.006908623
0.0284	-0.006356646
0.02848	-0.006544354
0.02856	-0.006577988
0.02864	-0.007054009
0.02872	-0.007186621
0.0288	-0.00704018
0.02888	-0.007039628
0.02896	-0.007032133
0.02904	-0.007024682
0.02912	-0.006904742
0.0292	-0.006720928
0.02928	-0.006334357
0.02936	-0.006672702
0.02944	-0.006567007
0.02952	-0.005932658
0.0296	-0.005047358
0.02968	-0.004012154
0.02976	-0.00342497
0.02984	-0.003205456
0.02992	-0.003364855
0.03	-0.002781674
0.03008	-0.001732986
0.03016	-0.0009660221
0.03024	-0.001146648
0.03032	-0.001644986
0.0304	-0.001986191
0.03048	-0.001881364
0.03056	-0.001612006
0.03064	-0.0008336033
0.03072	-0.0001075463
0.0308	0.0004861394
0.03088	0.001328696
0.03096	0.001837058
0.03104	0.002224132
0.03112	0.002453374
0.0312	0.002537575
0.03128	0.003619318
0.03136	0.004520062
0.03144	0.00581042
0.03152	0.006507884
0.0316	0.007612986
0.03168	0.008372274
0.03176	0.008305525
0.03184	0.007900853
0.03192	0.008649838
0.032	0.009788037
0.03208	0.009582874
0.03216	0.009369315
0.03224	0.009668532
0.03232	0.009702426
0.0324	0.009989981
0.03248	0.01040231
0.03256	0.0103551
0.03264	0.01062976
0.03272	0.0111998
0.0328	0.01134027
0.03288	0.01108888
0.03296	0.01104894
0.03304	0.01118898
0.03312	0.01119331
0.0332	0.01125467
0.03328	0.01169816
0.03336	0.01177473
0.03344	0.01169979
0.03352	0.01195549
0.0336	0.01202959
0.03368	0.01231668
0.03376	0.01273669
0.03384	0.01283589
0.03392	0.01294414
0.034	0.0131507
0.03408	0.01280014
0.03416	0.01294973
0.03424	0.01291452
0.03432	0.01323938
0.0344	0.01407824
0.03448	0.014319
0.03456	0.01445085
0.03464	0.01416318
0.03472	0.01365436
0.0348	0.01287752
0.03488	0.0131835
0.03496	0.01403888
0.03504	0.01459795
0.03512	0.01504477
0.0352	0.01503802
0.03528	0.01439623
0.03536	0.01340749
0.03544	0.01282761
0.03552	0.01296961
0.0356	0.01375854
0.03568	0.0141258
0.03576	0.01344619
0.03584	0.01276459
0.03592	0.01273592
0.036	0.01228495
0.03608	0.01208941
0.03616	0.01276822
0.03624	0.01274863
0.03632	0.01233979
0.0364	0.01174297
0.03648	0.01151456
0.03656	0.01112475
0.03664	0.01086353
0.03672	0.0111925
0.0368	0.01166295
0.03688	0.01189524
0.03696	0.01164734
0.03704	0.01144399
0.03712	0.01128955
0.0372	0.01177034
0.03728	0.01264306
0.03736	0.01213198
0.03744	0.01100748
0.03752	0.01037195
0.0376	0.01071178
0.03768	0.01064533
0.03776	0.01002251
0.03784	0.009278959
0.03792	0.008762867
0.038	0.00912358
0.03808	0.009512758
0.03816	0.009191499
0.03824	0.009207495
0.03832	0.009731719
0.0384	0.009770092
0.03848	0.009688158
0.03856	0.009042358
0.03864	0.008420291
0.03872	0.007689801
0.0388	0.007003485
0.03888	0.005960005
0.03896	0.004684238
0.03904	0.003812808
0.03912	0.003389406
0.0392	0.003356641
0.03928	0.003130696
0.03936	0.002364324
0.03944	0.001752705
0.03952	0.001469415
0.0396	0.001082705
0.03968	0.001019142
0.03976	0.000761405
0.03984	0.0002470271
0.03992	-0.0003762131
0.04	-0.000676095
0.04008	-0.001039635
0.04016	-0.001659496
0.04024	-0.001696545
0.04032	-0.001895339
0.0404	-0.002273576
0.04048	-0.002797569
0.04056	-0.003131312
0.04064	-0.003082368
0.04072	-0.003383044
0.0408	-0.003598773
0.04088	-0.004163744
0.04096	-0.004875722
0.04104	-0.004947561
0.04112	-0.004524759
0.0412	-0.004042839
0.04128	-0.004110592
0.04136	-0.004768125
0.04144	-0.005190758
0.04152	-0.005479524
0.0416	-0.00580068
0.04168	-0.006118642
0.04176	-0.006680209
0.04184	-0.007087075
0.04192	-0.007876302
0.042	-0.007589045
0.04208	-0.006459799
0.04216	-0.005971101
0.04224	-0.005961538
0.04232	-0.006188183
0.0424	-0.006369661
0.04248	-0.006367209
0.04256	-0.006533126
0.04264	-0.006718914
0.04272	-0.007145394
0.0428	-0.008239528
0.04288	-0.008870447
0.04296	-0.008819358
0.04304	-0.008803518
0.04312	-0.009220983
0.0432	-0.009902155
0.04328	-0.01068275
0.04336	-0.01142652
0.04344	-0.012104
0.04352	-0.01320155
0.0436	-0.01338761
0.04368	-0.01310826
0.04376	-0.01328695
0.04384	-0.01315924
0.04392	-0.01310652
0.044	-0.01253143
0.04408	-0.01263631
0.04416	-0.01337598
0.04424	-0.01393517
0.04432	-0.01429304
0.0444	-0.01427712
0.04448	-0.01399491
0.04456	-0.01419996
0.04464	-0.01448403
0.04472	-0.01535874
0.0448	-0.01600949
0.04488	-0.01589954
0.04496	-0.01651838
0.04504	-0.0166448
0.04512	-0.01629164
0.0452	-0.01595649
0.04528	-0.01517824
0.04536	-0.01449887
0.04544	-0.01424858
0.04552	-0.01403518
0.0456	-0.01363242
0.04568	-0.01306472
0.04576	-0.01277466
0.04584	-0.01302611
0.04592	-0.01323202
0.046	-0.01280045
0.04608	-0.01260026
0.04616	-0.01273039
0.04624	-0.01265989
0.04632	-0.01248063
0.0464	-0.01272408
0.04648	-0.01333852
0.04656	-0.01349626
0.04664	-0.01309173
0.04672	-0.01255142
0.0468	-0.01202545
0.04688	-0.01160327
0.04696	-0.01150511
0.04704	-0.01125867
0.04712	-0.01121281
0.0472	-0.01107165
0.04728	-0.01026992
0.04736	-0.009440891
0.04744	-0.009002459
0.04752	-0.008337433
0.0476	-0.007720578
0.04768	-0.007082513
0.04776	-0.00706005
0.04784	-0.007160494
0.04792	-0.006911274
0.048	-0.006245747
0.04808	-0.00584832
0.04816	-0.005569984
0.04824	-0.005595142
0.04832	-0.006026047
0.0484	-0.006339864
0.04848	-0.006407017
0.04856	-0.006679812
0.04864	-0.007437397
0.04872	-0.007681677
0.0488	-0.007410443
0.04888	-0.007864837
0.04896	-0.007572927
0.04904	-0.006819392
0.04912	-0.005860076
0.0492	-0.004503547
0.04928	-0.003364813
0.04936	-0.002173859
0.04944	-0.001161783
0.04952	-0.000946108
0.0496	-0.0009981323
0.04968	-0.0009251573
0.04976	-0.0004116346
0.04984	9.683967e-5
0.04992	0.0002243059
0.05	0.0007985925
0.05008	0.001212196
0.05016	0.00121955
0.05024	0.0005302898
0.05032	0.0005131951
0.0504	0.001220357
0.05048	0.001409309
0.05056	0.001070015
0.05064	0.00125991
0.05072	0.001998833
0.0508	0.002189983
0.05088	0.002187997
0.05096	0.001899429
0.05104	0.001937977
0.05112	0.002205028
0.0512	0.003084924
0.05128	0.003819278
0.05136	0.004788065
0.05144	0.005309533
0.05152	0.005754131
0.0516	0.00638401
0.05168	0.006944384
0.05176	0.007621116
0.05184	0.008205548
0.05192	0.009208871
0.052	0.009498429
0.05208	0.009751138
0.05216	0.009619459
0.05224	0.009829561
0.05232	0.01089243
0.0524	0.01200651
0.05248	0.01252825
0.05256	0.01279845
0.05264	0.01259485
0.05272	0.01265089
0.0528	0.01254565
0.05288	0.01248849
0.05296	0.0128511
0.05304	0.01300663
0.05312	0.01324378
0.0532	0.0141277
0.05328	0.01525664
0.05336	0.01604732
0.05344	0.01630519
0.05352	0.01618822
0.0536	0.01624849
0.05368	0.01620018
0.05376	0.015667
0.05384	0.01511475
0.05392	0.01389016
0.054	0.01288634
0.05408	0.01273783
0.05416	0.01253225
0.05424	0.01134928
0.05432	0.01084256
0.0544	0.01070543
0.05448	0.01074524
0.05456	0.01081047
0.05464	0.01061199
0.05472	0.0100232
0.0548	0.009783662
0.05488	0.01029355
0.05496	0.01131274
0.05504	0.01193916
0.05512	0.0132011
0.0552	0.01488464
0.05528	0.01600366
0.05536	0.01650004
0.05544	0.01656513
0.05552	0.01649164
0.0556	0.01638144
0.05568	0.01619658
0.05576	0.01672048
0.05584	0.01694406
0.05592	0.0168388
0.056	0.01718304
0.05608	0.01702298
0.05616	0.01715189
0.05624	0.01707604
0.05632	0.01652751
0.0564	0.01599991
0.05648	0.01542309
0.05656	0.0143898
0.05664	0.01330909
0.05672	0.01305247
0.0568	0.01284162
0.05688	0.01249092
0.05696	0.01165576
0.05704	0.01054748
0.05712	0.01005676
0.0572	0.00997503
0.05728	0.009761718
0.05736	0.009245694
0.05744	0.008405275
0.05752	0.007607008
0.0576	0.00704392
0.05768	0.006904519
0.05776	0.00655037
0.05784	0.006571054
0.05792	0.006533366
0.058	0.006039601
0.05808	0.00551721
0.05816	0.005944447
0.05824	0.006374524
0.05832	0.006350473
0.0584	0.006230923
0.05848	0.005904841
0.05856	0.00564608
0.05864	0.005631267
0.05872	0.005528106
0.0588	0.005353887
0.05888	0.004858866
0.05896	0.004219605
0.05904	0.003395402
0.05912	0.003097791
0.0592	0.003088804
0.05928	0.00296114
0.05936	0.003278412
0.05944	0.003928546
0.05952	0.00375766
0.0596	0.003420424
0.05968	0.003077813
0.05976	0.003286558
0.05984	0.003024573
0.05992	0.00262307
0.06	0.002433423
0.06008	0.002220602
0.06016	0.001818782
0.06024	0.0005038725
0.06032	-0.00124451
0.0604	-0.003346022
0.06048	-0.005099096
0.06056	-0.005367332
0.06064	-0.004688154
0.06072	-0.00510141
0.0608	-0.005553149
0.06088	-0.006381323
0.06096	-0.007257691
0.06104	-0.007626754
0.06112	-0.007889659
0.0612	-0.00768258
0.06128	-0.008048835
0.06136	-0.008634523
0.06144	-0.008703518
0.06152	-0.009008233
0.0616	-0.009357955
0.06168	-0.009501485
0.06176	-0.009812324
0.06184	-0.009440048
0.06192	-0.009603255
0.062	-0.01027063
0.06208	-0.01078762
0.06216	-0.0106785
0.06224	-0.009718835
0.06232	-0.009050096
0.0624	-0.009098457
0.06248	-0.009395683
0.06256	-0.009838459
0.06264	-0.01102751
0.06272	-0.01223312
0.0628	-0.0124382
0.06288	-0.01254931
0.06296	-0.01323962
0.06304	-0.01357451
0.06312	-0.01385737
0.0632	-0.01382484
0.06328	-0.01259439
0.06336	-0.01208854
0.06344	-0.01258892
0.06352	-0.01305097
0.0636	-0.01363852
0.06368	-0.01428594
0.06376	-0.01512678
0.06384	-0.01511902
0.06392	-0.01465005
0.064	-0.01482732
0.06408	-0.01563288
0.06416	-0.01574353
0.06424	-0.01504522
0.06432	-0.01505366
0.0644	-0.0157242
0.06448	-0.01579992
0.06456	-0.01541513
0.06464	-0.01509815
0.06472	-0.01495232
0.0648	-0.01513728
0.06488	-0.0147136
0.06496	-0.01414941
0.06504	-0.01452082
0.06512	-0.01491327
0.0652	-0.01549792
0.06528	-0.01614466
0.06536	-0.01645707
0.06544	-0.01684688
0.06552	-0.01646534
0.0656	-0.01607721
0.06568	-0.01528422
0.06576	-0.0149858
0.06584	-0.01532938
0.06592	-0.01576286
0.066	-0.01561617
0.06608	-0.01551655
0.06616	-0.01613503
0.06624	-0.01694555
0.06632	-0.01684896
0.0664	-0.01674195
0.06648	-0.01608881
0.06656	-0.01561143
0.06664	-0.0151554
0.06672	-0.01495494
0.0668	-0.0146641
0.06688	-0.01440402
0.06696	-0.01429638
0.06704	-0.01402416
0.06712	-0.01395769
0.0672	-0.01403245
0.06728	-0.0139071
0.06736	-0.01322214
0.06744	-0.01292807
0.06752	-0.01260182
0.0676	-0.01185944
0.06768	-0.01097638
0.06776	-0.01112898
0.06784	-0.01067463
0.06792	-0.01027086
0.068	-0.01018354
0.06808	-0.009337234
0.06816	-0.008737229
0.06824	-0.008457243
0.06832	-0.008570546
0.0684	-0.008709407
0.06848	-0.00751527
0.06856	-0.006454878
0.06864	-0.005918276
0.06872	-0.00562089
0.0688	-0.005829822
0.06888	-0.005729813
0.06896	-0.005554242
0.06904	-0.004397125
0.06912	-0.003640849
0.0692	-0.003252928
0.06928	-0.003437123
0.06936	-0.003628254
0.06944	-0.003745667
0.06952	-0.004074669
0.0696	-0.003565547
0.06968	-0.003116117
0.06976	-0.002764562
0.06984	-0.003036635
0.06992	-0.003128544
0.07	-0.003196756
0.07008	-0.00366206
0.07016	-0.003695336
0.07024	-0.003277202
0.07032	-0.002149106
0.0704	-0.001018801
0.07048	0.0001267566
0.07056	0.001928474
0.07064	0.003087182
0.07072	0.003665028
0.0708	0.003936523
0.07088	0.003792087
0.07096	0.003368737
0.07104	0.003189594
0.07112	0.00334503
0.0712	0.002974529
0.07128	0.003204427
0.07136	0.003604598
0.07144	0.004168963
0.07152	0.005512561
0.0716	0.006972111
0.07168	0.00835455
0.07176	0.009305327
0.07184	0.009640589
0.07192	0.009592076
0.072	0.01015824
0.07208	0.01049251
0.07216	0.01002166
0.07224	0.00981622
0.07232	0.009762597
0.0724	0.01005
0.07248	0.01029841
0.07256	0.01044369
0.07264	0.01077385
0.07272	0.01138972
0.0728	0.01193639
0.07288	0.01207762
0.07296	0.0120727
0.07304	0.01208384
0.07312	0.01307517
0.0732	0.01394768
0.07328	0.01454502
0.07336	0.01392386
0.07344	0.01349456
0.07352	0.01355855
0.0736	0.01346111
0.07368	0.01385194
0.07376	0.01414158
0.07384	0.01439407
0.07392	0.01432728
0.074	0.01508226
0.07408	0.01570285
0.07416	0.01610838
0.07424	0.01606261
0.07432	0.01602342
0.0744	0.01632835
0.07448	0.0161029
0.07456	0.01602454
0.07464	0.01568651
0.07472	0.01477949
0.0748	0.01377398
0.07488	0.01344148
0.07496	0.01332863
0.07504	0.01352333
0.07512	0.01336904
0.0752	0.0131264
0.07528	0.01297851
0.07536	0.012869
0.07544	0.0128535
0.07552	0.0129178
0.0756	0.01373916
0.07568	0.01473422
0.07576	0.01480257
0.07584	0.01444474
0.07592	0.01440849
0.076	0.01470667
0.07608	0.01410315
0.07616	0.01284415
0.07624	0.01272444
0.07632	0.0127861
0.0764	0.01274483
0.07648	0.01222863
0.07656	0.01112934
0.07664	0.0105934
0.07672	0.01089265
0.0768	0.01225069
0.07688	0.01304228
0.07696	0.0135259
0.07704	0.01343525
0.07712	0.0131638
0.0772	0.01332477
0.07728	0.01313552
0.07736	0.01285654
0.07744	0.01219838
0.07752	0.01165425
0.0776	0.01121831
0.07768	0.01072876
0.07776	0.01001504
0.07784	0.009621609
0.07792	0.008925477
0.078	0.007719271
0.07808	0.007044992
0.07816	0.006101465
0.07824	0.005553778
0.07832	0.005288058
0.0784	0.005320556
0.07848	0.005251744
0.07856	0.004895448
0.07864	0.005375987
0.07872	0.006179132
0.0788	0.006430439
0.07888	0.006467413
0.07896	0.006782437
0.07904	0.006716555
0.07912	0.006589734
0.0792	0.006595172
0.07928	0.00657107
0.07936	0.005751067
0.07944	0.004912337
0.07952	0.003941583
0.0796	0.002612259
0.07968	0.001258549
0.07976	-4.945268e-5
0.07984	-0.0009634499
0.07992	-0.002053535
0.08	-0.002698815
0.08008	-0.002811966
0.08016	-0.003093804
0.08024	-0.003373776
0.08032	-0.003660787
0.0804	-0.00406985
0.08048	-0.005178092
0.08056	-0.005890109
0.08064	-0.006771268
0.08072	-0.007721446
0.0808	-0.00931818
0.08088	-0.01065755
0.08096	-0.01186576
0.08104	-0.01378416
0.08112	-0.01440802
0.0812	-0.01432929
0.08128	-0.01427849
0.08136	-0.0141499
0.08144	-0.01381403
0.08152	-0.01317672
0.0816	-0.01190437
0.08168	-0.01127115
0.08176	-0.01129278
0.08184	-0.01142678
0.08192	-0.01132171
0.082	-0.01075782
0.08208	-0.01041718
0.08216	-0.01008691
0.08224	-0.009825808
0.08232	-0.009685016
0.0824	-0.00967652
0.08248	-0.009550557
0.08256	-0.01027245
0.08264	-0.01004068
0.08272	-0.01051893
0.0828	-0.01080687
0.08288	-0.01066231
0.08296	-0.01049351
0.08304	-0.01015683
0.08312	-0.01074913
0.0832	-0.01087679
0.08328	-0.01184327
0.08336	-0.01295211
0.08344	-0.01388998
0.08352	-0.01406173
0.0836	-0.01329583
0.08368	-0.01340798
0.08376	-0.01396733
0.08384	-0.01421075
0.08392	-0.01442638
0.084	-0.01509349
0.08408	-0.01530944
0.08416	-0.01525827
0.08424	-0.0154575
0.08432	-0.01625402
0.0844	-0.01721534
0.08448	-0.01685009
0.08456	-0.01667972
0.08464	-0.01704625
0.08472	-0.01732186
0.0848	-0.01782482
0.08488	-0.01827578
0.08496	-0.01845059
0.08504	-0.01903242
0.08512	-0.01907023
0.0852	-0.01857045
0.08528	-0.01812253
0.08536	-0.01835257
0.08544	-0.01822869
0.08552	-0.01771552
0.0856	-0.01709815
0.08568	-0.01675856
0.08576	-0.01644758
0.08584	-0.01554289
0.08592	-0.01440351
0.086	-0.01396014
0.08608	-0.01345305
0.08616	-0.01328933
0.08624	-0.01257989
0.08632	-0.01252468
0.0864	-0.01317674
0.08648	-0.01390872
0.08656	-0.01424741
0.08664	-0.01366295
0.08672	-0.01358509
0.0868	-0.01424529
0.08688	-0.01446112
0.08696	-0.01424634
0.08704	-0.01383369
0.08712	-0.0132774
0.0872	-0.01229476
0.08728	-0.01115821
0.08736	-0.0107112
0.08744	-0.0106046
0.08752	-0.01091943
0.0876	-0.01103435
0.08768	-0.01088752
0.08776	-0.01001694
0.08784	-0.008544308
0.08792	-0.007743968
0.088	-0.006909991
0.08808	-0.006492841
0.08816	-0.005974849
0.08824	-0.005216011
0.08832	-0.004265407
0.0884	-0.002659479
0.08848	-0.001361573
0.08856	-0.0007187088
0.08864	-0.000617038
0.08872	-0.0001665567
0.0888	-0.000410314
0.08888	-0.001187371
0.08896	-0.001594284
0.08904	-0.001348853
0.08912	-0.0006381579
0.0892	-0.0007286811
0.08928	-0.0009914013
0.08936	-0.001950037
0.08944	-0.002928644
0.08952	-0.003352195
0.0896	-0.003003565
0.08968	-0.002668076
0.08976	-0.001848608
0.08984	-0.001325299
0.08992	-0.0007154169
0.09	1.16135e-5
0.09008	0.0001807478
0.09016	0.0003843631
0.09024	0.0002914411
0.09032	0.0003567867
0.0904	0.0007632343
0.09048	0.0009463626
0.09056	0.001056141
0.09064	0.001601986
0.09072	0.00244944
0.0908	0.002328805
0.09088	0.002247831
0.09096	0.002711195
0.09104	0.003115966
0.09112	0.003944052
0.0912	0.00424268
0.09128	0.005181544
0.09136	0.006506122
0.09144	0.007369958
0.09152	0.007762599
0.0916	0.007414564
0.09168	0.006828709
0.09176	0.006740772
0.09184	0.006983299
0.09192	0.007689297
0.092	0.008579435
0.09208	0.009225285
0.09216	0.00947398
0.09224	0.009410486
0.09232	0.009772955
0.0924	0.009644141
0.09248	0.009436804
0.09256	0.009605759
0.09264	0.0102366
0.09272	0.01080246
0.0928	0.01128001
0.09288	0.01165865
0.09296	0.01226615
0.09304	0.01292764
0.09312	0.01277303
0.0932	0.01337014
0.09328	0.01420569
0.09336	0.01515352
0.09344	0.01548012
0.09352	0.01578159
0.0936	0.01599544
0.09368	0.01534748
0.09376	0.01459103
0.09384	0.01348336
0.09392	0.01286434
0.094	0.01236351
0.09408	0.0113732
0.09416	0.01096597
0.09424	0.01198584
0.09432	0.0132946
0.0944	0.01452707
0.09448	0.01537314
0.09456	0.01616577
0.09464	0.01688813
0.09472	0.01713491
0.0948	0.01674318
0.09488	0.01618272
0.09496	0.01622415
0.09504	0.01639608
0.09512	0.01699553
0.0952	0.01735148
0.09528	0.01790892
0.09536	0.01824482
0.09544	0.01843799
0.09552	0.01798992
0.0956	0.01723973
0.09568	0.01699921
0.09576	0.01772325
0.09584	0.0190294
0.09592	0.01970313
0.096	0.02005856
0.09608	0.02037941
0.09616	0.02050194
0.09624	0.02064642
0.09632	0.01998775
0.0964	0.01948535
0.09648	0.0190965
0.09656	0.01870971
0.09664	0.01873017
0.09672	0.01858283
0.0968	0.01817905
0.09688	0.01806203
0.09696	0.01820024
0.09704	0.01727811
0.09712	0.01651626
0.0972	0.0155145
0.09728	0.01387623
0.09736	0.01234623
0.09744	0.01055161
0.09752	0.008962469
0.0976	0.007928882
0.09768	0.007005535
0.09776	0.006266124
0.09784	0.005886072
0.09792	0.005764923
0.098	0.005223036
0.09808	0.004608918
0.09816	0.00412285
0.09824	0.00403576
0.09832	0.004275782
0.0984	0.005069456
0.09848	0.006193166
0.09856	0.006295566
0.09864	0.005735047
0.09872	0.005549632
0.0988	0.005801995
0.09888	0.005956426
0.09896	0.00517124
0.09904	0.0041454
0.09912	0.003733486
0.0992	0.003586578
0.09928	0.00314166
0.09936	0.003057106
0.09944	0.002867704
0.09952	0.002345627
0.0996	0.001179029
0.09968	0.0001531371
0.09976	-0.0009878853
0.09984	-0.001899194
0.09992	-0.001975273
0.1	-0.002388913
0.10008	-0.003198316
0.10016	-0.003815599
0.10024	-0.004319035
0.10032	-0.004641634
0.1004	-0.004846481
0.10048	-0.005397169
0.10056	-0.005728825
0.10064	-0.005753989
0.10072	-0.005991098
0.1008	-0.006406428
0.10088	-0.006327994
0.10096	-0.006039358
0.10104	-0.006042402
0.10112	-0.005402395
0.1012	-0.005142835
0.10128	-0.005940652
0.10136	-0.006385972
0.10144	-0.007092479
0.10152	-0.00802017
0.1016	-0.009188807
0.10168	-0.009866654
0.10176	-0.0100236
0.10184	-0.00997977
0.10192	-0.01065977
0.102	-0.01165939
0.10208	-0.01229428
0.10216	-0.01262677
0.10224	-0.0130317
0.10232	-0.0131331
0.1024	-0.01345345
0.10248	-0.01364098
0.10256	-0.01374729
0.10264	-0.01389271
0.10272	-0.01305193
0.1028	-0.0121828
0.10288	-0.01131757
0.10296	-0.01129762
0.10304	-0.01119254
0.10312	-0.01120703
0.1032	-0.01164172
0.10328	-0.0120411
0.10336	-0.01196281
0.10344	-0.01110834
0.10352	-0.01128176
0.1036	-0.01167137
0.10368	-0.01265319
0.10376	-0.01343781
0.10384	-0.01460366
0.10392	-0.01594024
0.104	-0.0164909
0.10408	-0.01643002
0.10416	-0.01628987
0.10424	-0.01587765
0.10432	-0.01533152
0.1044	-0.01512633
0.10448	-0.01467646
0.10456	-0.0139673
0.10464	-0.01363262
0.10472	-0.0139422
0.1048	-0.01448416
0.10488	-0.01454608
0.10496	-0.01427867
0.10504	-0.01362982
0.10512	-0.01330149
0.1052	-0.01299843
0.10528	-0.01278379
0.10536	-0.01283799
0.10544	-0.01305644
0.10552	-0.01396721
0.1056	-0.01513398
0.10568	-0.01566095
0.10576	-0.01574044
0.10584	-0.01571787
0.10592	-0.0162931
0.106	-0.01645679
0.10608	-0.01704699
0.10616	-0.01715361
0.10624	-0.01687958
0.10632	-0.01598599
0.1064	-0.0158905
0.10648	-0.01604426
0.10656	-0.01504547
0.10664	-0.01362096
0.10672	-0.01275347
0.1068	-0.01270959
0.10688	-0.01247647
0.10696	-0.01274002
0.10704	-0.0138737
0.10712	-0.01454953
0.1072	-0.01487433
0.10728	-0.01455302
0.10736	-0.01443084
0.10744	-0.01408221
0.10752	-0.01304283
0.1076	-0.01280765
0.10768	-0.01241869
0.10776	-0.01175575
0.10784	-0.01131594
0.10792	-0.01081367
0.108	-0.01093515
0.10808	-0.01101922
0.10816	-0.01092407
0.10824	-0.01076863
0.10832	-0.01026981
0.1084	-0.009854264
0.10848	-0.01012773
0.10856	-0.009793341
0.10864	-0.009446213
0.10872	-0.008949903
0.1088	-0.008017432
0.10888	-0.006923621
0.10896	-0.006239673
0.10904	-0.005438206
0.10912	-0.004112443
0.1092	-0.003537005
0.10928	-0.002648854
0.10936	-0.002363789
0.10944	-0.002641743
0.10952	-0.002267916
0.1096	-0.001476975
0.10968	-0.0005969135
0.10976	-5.569939e-5
0.10984	0.0003494751
0.10992	0.0001612348
0.11	-0.0001442722
0.11008	-0.000733988
0.11016	-0.0006059386
0.11024	-0.0002420795
0.11032	0.0002660879
0.1104	0.0009264022
0.11048	0.001009888
0.11056	0.001793537
0.11064	0.003468893
0.11072	0.005252386
0.1108	0.00607634
0.11088	0.00655948
0.11096	0.006703808
0.11104	0.006584157
0.11112	0.006362443
0.1112	0.005862704
0.11128	0.005859293
0.11136	0.006564351
0.11144	0.007299325
0.11152	0.008184721
0.1116	0.009064549
0.11168	0.009971705
0.11176	0.009822955
0.11184	0.009022289
0.11192	0.008903856
0.112	0.009647267
0.11208	0.01026978
0.11216	0.01079955
0.11224	0.01142393
0.11232	0.01210586
0.1124	0.01243334
0.11248	0.01267572
0.11256	0.0141842
0.11264	0.01551743
0.11272	0.01604393
0.1128	0.0161723
0.11288	0.0161717
0.11296	0.0159721
0.11304	0.01552731
0.11312	0.01561188
0.1132	0.01539851
0.11328	0.01603299
0.11336	0.01666953
0.11344	0.01703751
0.11352	0.01809953
0.1136	0.01863699
0.11368	0.01861713
0.11376	0.01813641
0.11384	0.01787591
0.11392	0.01752578
0.114	0.01755561
0.11408	0.01811359
0.11416	0.01890653
0.11424	0.01956592
0.11432	0.01957418
0.1144	0.01922849
0.11448	0.01865658
0.11456	0.01799315
0.11464	0.01750606
0.11472	0.01764452
0.1148	0.01754187
0.11488	0.01744306
0.11496	0.01734411
0.11504	0.01715812
0.11512	0.01667205
0.1152	0.01633102
0.11528	0.01606477
0.11536	0.01585385
0.11544	0.0153786
0.11552	0.01577274
0.1156	0.01650815
0.11568	0.01672033
0.11576	0.01677807
0.11584	0.0169362
0.11592	0.016652
0.116	0.01633381
0.11608	0.01655634
0.11616	0.01637254
0.11624	0.01575737
0.11632	0.01542908
0.1164	0.01509702
0.11648	0.01511272
0.11656	0.0153303
0.11664	0.01536879
0.11672	0.01578494
0.1168	0.01523968
0.11688	0.0147763
0.11696	0.01456982
0.11704	0.01424687
0.11712	0.01426812
0.1172	0.01426962
0.11728	0.01459798
0.11736	0.01547814
0.11744	0.01591789
0.11752	0.01560429
0.1176	0.01544954
0.11768	0.01475101
0.11776	0.01378892
0.11784	0.01361935
0.11792	0.01387769
0.118	0.01348427
0.11808	0.01322607
0.11816	0.01335782
0.11824	0.01330412
0.11832	0.01296086
0.1184	0.01256467
0.11848	0.01173469
0.11856	0.01062004
0.11864	0.009982376
0.11872	0.009422827
0.1188	0.009028374
0.11888	0.008267445
0.11896	0.00797672
0.11904	0.007588859
0.11912	0.007456423
0.1192	0.007661166
0.11928	0.007582161
0.11936	0.007085957
0.11944	0.007030045
0.11952	0.007507179
0.1196	0.007947605
0.11968	0.007913308
0.11976	0.0071379
0.11984	0.005905952
0.11992	0.00642356
0.12	0.007036032
0.12008	0.007017441
0.12016	0.00570449
0.12024	0.00463056
0.12032	0.004073786
0.1204	0.003427787
0.12048	0.002831128
0.12056	0.002030385
0.12064	0.001303978
0.12072	0.0002036592
0.1208	-0.0002613635
0.12088	-0.0004860238
0.12096	-0.001549259
0.12104	-0.002785375
0.12112	-0.003642431
0.1212	-0.003592695
0.12128	-0.003374013
0.12136	-0.003580233
0.12144	-0.00392263
0.12152	-0.004412329
0.1216	-0.005449937
0.12168	-0.006253413
0.12176	-0.006725246
0.12184	-0.007063756
0.12192	-0.006672846
0.122	-0.006717568
0.12208	-0.006915119
0.12216	-0.00767702
0.12224	-0.008909985
0.12232	-0.009564808
0.1224	-0.01044845
0.12248	-0.01067462
0.12256	-0.01058104
0.12264	-0.01046612
0.12272	-0.0105679
0.1228	-0.01065055
0.12288	-0.01114821
0.12296	-0.0117937
0.12304	-0.01198728
0.12312	-0.01195386
0.1232	-0.01269971
0.12328	-0.01328756
0.12336	-0.01353421
0.12344	-0.01445398
0.12352	-0.01533591
0.1236	-0.01579277
0.12368	-0.01626913
0.12376	-0.01665883
0.12384	-0.01607157
0.12392	-0.01574047
0.124	-0.01551562
0.12408	-0.01568705
0.12416	-0.01552628
0.12424	-0.01579435
0.12432	-0.01578072
0.1244	-0.01656453
0.12448	-0.01751629
0.12456	-0.01783367
0.12464	-0.0182569
0.12472	-0.01885481
0.1248	-0.01907915
0.12488	-0.0191089
0.12496	-0.01857154
0.12504	-0.01864873
0.12512	-0.01835968
0.1252	-0.01790634
0.12528	-0.01721469
0.12536	-0.01674075
0.12544	-0.01634965
0.12552	-0.01579375
0.1256	-0.01563267
0.12568	-0.01547277
0.12576	-0.01538773
0.12584	-0.01539393
0.12592	-0.01610151
0.126	-0.01622888
0.12608	-0.01602583
0.12616	-0.01588961
0.12624	-0.01594761
0.12632	-0.01606416
0.1264	-0.01559827
0.12648	-0.01585055
0.12656	-0.01595131
0.12664	-0.01571153
0.12672	-0.01555919
0.1268	-0.01514326
0.12688	-0.01480518
0.12696	-0.01477179
0.12704	-0.01489803
0.12712	-0.01510913
0.1272	-0.015019
0.12728	-0.01492318
0.12736	-0.01409479
0.12744	-0.01285759
0.12752	-0.01245858
0.1276	-0.01277902
0.12768	-0.01348059
0.12776	-0.01405982
0.12784	-0.01382437
0.12792	-0.01382167
0.128	-0.01382556
0.12808	-0.01407464
0.12816	-0.01440213
0.12824	-0.01355738
0.12832	-0.01291948
0.1284	-0.01230697
0.12848	-0.01121216
0.12856	-0.01046408
0.12864	-0.009857885
0.12872	-0.009775438
0.1288	-0.009667431
0.12888	-0.009469371
0.12896	-0.009481505
0.12904	-0.009342633
0.12912	-0.008884532
0.1292	-0.008869157
0.12928	-0.008705139
0.12936	-0.0079222
0.12944	-0.006587693
0.12952	-0.006194016
0.1296	-0.005647033
0.12968	-0.004894135
0.12976	-0.004501451
0.12984	-0.003865332
0.12992	-0.003050846
0.13	-0.002248957
0.13008	-0.001890834
0.13016	-0.001486092
0.13024	-0.001170116
0.13032	-0.001537812
0.1304	-0.002050833
0.13048	-0.001934989
0.13056	-0.001681946
0.13064	-0.001152994
0.13072	-0.0002318805
0.1308	0.0003261782
0.13088	0.000794948
0.13096	0.001228616
0.13104	0.001883299
0.13112	0.003243085
0.1312	0.004092983
0.13128	0.004000616
0.13136	0.004216044
0.13144	0.004392426
0.13152	0.004758022
0.1316	0.005288891
0.13168	0.006152184
0.13176	0.006705334
0.13184	0.006711121
0.13192	0.006282438
0.132	0.005844364
0.13208	0.005543379
0.13216	0.005492795
0.13224	0.006094658
0.13232	0.007050617
0.1324	0.008187724
0.13248	0.008735003
0.13256	0.009632478
0.13264	0.01052494
0.13272	0.01082978
0.1328	0.0110902
0.13288	0.01101026
0.13296	0.0113511
0.13304	0.01264603
0.13312	0.0132009
0.1332	0.01344886
0.13328	0.01272921
0.13336	0.01159658
0.13344	0.01105545
0.13352	0.01052208
0.1336	0.01038218
0.13368	0.01044964
0.13376	0.01036391
0.13384	0.01038075
0.13392	0.01102571
0.134	0.01113867
0.13408	0.01050682
0.13416	0.009877586
0.13424	0.009807441
0.13432	0.009731725
0.1344	0.01029926
0.13448	0.01063092
0.13456	0.01017634
0.13464	0.01027646
0.13472	0.01068412
0.1348	0.01040482
0.13488	0.009728202
0.13496	0.009436904
0.13504	0.01041716
0.13512	0.01139416
0.1352	0.01201257
0.13528	0.0125967
0.13536	0.01286069
0.13544	0.01202437
0.13552	0.01082878
0.1356	0.01007213
0.13568	0.0095915
0.13576	0.009225199
0.13584	0.008928617
0.13592	0.00916727
0.136	0.009185344
0.13608	0.009808909
0.13616	0.01043713
0.13624	0.01084653
0.13632	0.01092993
0.1364	0.0108091
0.13648	0.0110684
0.13656	0.01161083
0.13664	0.01185811
0.13672	0.01153303
0.1368	0.01142347
0.13688	0.01128352
0.13696	0.01119056
0.13704	0.01065316
0.13712	0.01108052
0.1372	0.01085686
0.13728	0.01020716
0.13736	0.009919245
0.13744	0.009178551
0.13752	0.008879251
0.1376	0.008321825
0.13768	0.007629694
0.13776	0.007305906
0.13784	0.007087911
0.13792	0.006225747
0.138	0.006381464
0.13808	0.00681095
0.13816	0.007025592
0.13824	0.007496309
0.13832	0.007469216
0.1384	0.006839169
0.13848	0.006181819
0.13856	0.006003034
0.13864	0.005930527
0.13872	0.004864358
0.1388	0.003794993
0.13888	0.002821278
0.13896	0.002010097
0.13904	0.001077154
0.13912	0.0006727993
0.1392	0.0008291133
0.13928	0.001430517
0.13936	0.001714751
0.13944	0.001453791
0.13952	0.001449681
0.1396	0.0003909566
0.13968	-0.001034041
0.13976	-0.001414323
0.13984	-0.001732087
0.13992	-0.001555231
0.14	-0.001671981
0.14008	-0.001861627
0.14016	-0.001807103
0.14024	-0.001235793
0.14032	-0.001620404
0.1404	-0.002579034
0.14048	-0.003664677
0.14056	-0.004766953
0.14064	-0.006243045
0.14072	-0.008199614
0.1408	-0.009847197
0.14088	-0.01100443
0.14096	-0.01182624
0.14104	-0.01235426
0.14112	-0.01282174
0.1412	-0.01300984
0.14128	-0.01350618
0.14136	-0.01329985
0.14144	-0.01269736
0.14152	-0.01211288
0.1416	-0.01194227
0.14168	-0.01173955
0.14176	-0.01087857
0.14184	-0.0105721
0.14192	-0.01117411
0.142	-0.01155202
0.14208	-0.01191819
0.14216	-0.01229864
0.14224	-0.01264806
0.14232	-0.01335745
0.1424	-0.01433595
0.14248	-0.01440343
0.14256	-0.01342077
0.14264	-0.0129473
0.14272	-0.01283399
0.1428	-0.01251302
0.14288	-0.0125488
0.14296	-0.01239802
0.14304	-0.01235067
0.14312	-0.01212874
0.1432	-0.01185422
0.14328	-0.01140705
0.14336	-0.0106502
0.14344	-0.009729634
0.14352	-0.01007188
0.1436	-0.01124801
0.14368	-0.01245646
0.14376	-0.01294343
0.14384	-0.01347187
0.14392	-0.01423965
0.144	-0.01465211
0.14408	-0.01494716
0.14416	-0.01508368
0.14424	-0.01586859
0.14432	-0.01642232
0.1444	-0.01614414
0.14448	-0.0164414
0.14456	-0.01678597
0.14464	-0.01684533
0.14472	-0.017078
0.1448	-0.01792935
0.14488	-0.01829065
0.14496	-0.01863283
0.14504	-0.01839142
0.14512	-0.01812357
0.1452	-0.01850328
0.14528	-0.0182577
0.14536	-0.01779225
0.14544	-0.01739336
0.14552	-0.0171896
0.1456	-0.01718276
0.14568	-0.0168724
0.14576	-0.01674372
0.14584	-0.01633102
0.14592	-0.01667309
0.146	-0.0168669
0.14608	-0.01639625
0.14616	-0.01621859
0.14624	-0.01619713
0.14632	-0.01566586
0.1464	-0.01453814
0.14648	-0.01492374
0.14656	-0.01565262
0.14664	-0.01628249
0.14672	-0.01616054
0.1468	-0.01585597
0.14688	-0.01614136
0.14696	-0.01670783
0.14704	-0.01642086
0.14712	-0.01593987
0.1472	-0.01563681
0.14728	-0.01540466
0.14736	-0.01569713
0.14744	-0.01546419
0.14752	-0.0147115
0.1476	-0.01428499
0.14768	-0.01368493
0.14776	-0.01295646
0.14784	-0.01274135
0.14792	-0.01361157
0.148	-0.01415824
0.14808	-0.01488638
0.14816	-0.01509864
0.14824	-0.01482793
0.14832	-0.01407688
0.1484	-0.01260417
0.14848	-0.01160058
0.14856	-0.01099502
0.14864	-0.01078427
0.14872	-0.009867859
0.1488	-0.009187691
0.14888	-0.009025071
0.14896	-0.008797191
0.14904	-0.008090024
0.14912	-0.007705188
0.1492	-0.007565646
0.14928	-0.007534244
0.14936	-0.006887264
0.14944	-0.005748851
0.14952	-0.004889647
0.1496	-0.00369887
0.14968	-0.002960296
0.14976	-0.002753843
0.14984	-0.002338237
0.14992	-0.00166501
0.15	-0.001073582
0.15008	-0.0004483611
0.15016	-0.0001601228
0.15024	9.445613e-5
0.15032	0.0004221969
0.1504	0.0005549809
0.15048	0.0002839145
0.15056	0.0001395848
0.15064	0.0009041575
0.15072	0.001777486
0.1508	0.002253341
0.15088	0.002553444
0.15096	0.003477661
0.15104	0.004451618
0.15112	0.005065852
0.1512	0.0048474
0.15128	0.004566535
0.15136	0.004986356
0.15144	0.005800746
0.15152	0.006553884
0.1516	0.006205193
0.15168	0.006526417
0.15176	0.007208535
0.15184	0.007522748
0.15192	0.008038988
0.152	0.008807552
0.15208	0.009401135
0.15216	0.009915091
0.15224	0.009968725
0.15232	0.01040221
0.1524	0.01076177
0.15248	0.01109352
0.15256	0.0114582
0.15264	0.01213706
0.15272	0.01286829
0.1528	0.01376808
0.15288	0.01388641
0.15296	0.01347292
0.15304	0.0136402
0.15312	0.01337806
0.1532	0.01265899
0.15328	0.01286115
0.15336	0.01289932
0.15344	0.01266317
0.15352	0.01293516
0.1536	0.01320322
0.15368	0.01336244
0.15376	0.01376685
0.15384	0.0140303
0.15392	0.01478167
0.154	0.01588736
0.15408	0.01642611
0.15416	0.01711861
0.15424	0.01788573
0.15432	0.01813353
0.1544	0.01731186
0.15448	0.01602848
0.15456	0.01513425
0.15464	0.0150389
0.15472	0.01524172
0.1548	0.01545411
0.15488	0.01576735
0.15496	0.01587896
0.15504	0.01659935
0.15512	0.01747025
0.1552	0.0181306
0.15528	0.01878779
0.15536	0.01929235
0.15544	0.01970065
0.15552	0.01992423
0.1556	0.02020242
0.15568	0.02021809
0.15576	0.01976668
0.15584	0.01929179
0.15592	0.01909932
0.156	0.01934521
0.15608	0.01902117
0.15616	0.01852838
0.15624	0.01822656
0.15632	0.01786598
0.1564	0.01838073
0.15648	0.01838846
0.15656	0.01800939
0.15664	0.01746931
0.15672	0.01710773
0.1568	0.01717513
0.15688	0.01694664
0.15696	0.01672159
0.15704	0.01617117
0.15712	0.01527275
0.1572	0.01385005
0.15728	0.01314779
0.15736	0.0126561
0.15744	0.01196506
0.15752	0.01158674
0.1576	0.01063316
0.15768	0.01010172
0.15776	0.01030683
0.15784	0.01048
0.15792	0.01053065
0.158	0.01076685
0.15808	0.0108131
0.15816	0.01021406
0.15824	0.01004242
0.15832	0.00932967
0.1584	0.008545004
0.15848	0.007492338
0.15856	0.006655843
0.15864	0.005654993
0.15872	0.004866947
0.1588	0.005142415
0.15888	0.005153428
0.15896	0.004603932
0.15904	0.003842814
0.15912	0.003445188
0.1592	0.003276177
0.15928	0.003658236
0.15936	0.003334042
0.15944	0.002953821
0.15952	0.002829355
0.1596	0.002883514
0.15968	0.002948508
0.15976	0.003182474
0.15984	0.002886037
0.15992	0.002698103
0.16	0.001829441
0.16008	0.00149305
0.16016	0.001127733
0.16024	0.0006988227
0.16032	0.0003354906
0.1604	0.0003583282
0.16048	0.0007609836
0.16056	0.0009725968
0.16064	0.00132828
0.16072	0.001470256
0.1608	0.001340988
0.16088	0.001181712
0.16096	0.0007179918
0.16104	0.0002001504
0.16112	-0.0006243481
0.1612	-0.001290717
0.16128	-0.001833419
0.16136	-0.002329237
0.16144	-0.003178664
0.16152	-0.003846731
0.1616	-0.004536221
0.16168	-0.004937393
0.16176	-0.005814102
0.16184	-0.006383937
0.16192	-0.006769532
0.162	-0.006988469
0.16208	-0.007631966
0.16216	-0.008494362
0.16224	-0.009047781
0.16232	-0.009325744
0.1624	-0.00981855
0.16248	-0.01000191
0.16256	-0.01010887
0.16264	-0.009603776
0.16272	-0.009391056
0.1628	-0.009723679
0.16288	-0.009793063
0.16296	-0.009986303
0.16304	-0.01100592
0.16312	-0.01192105
0.1632	-0.012365
0.16328	-0.01192374
0.16336	-0.01184405
0.16344	-0.0116506
0.16352	-0.0119561
0.1636	-0.01294835
0.16368	-0.01355842
0.16376	-0.01400053
0.16384	-0.0140597
0.16392	-0.01355904
0.164	-0.01343864
0.16408	-0.0136429
0.16416	-0.01441163
0.16424	-0.01483774
0.16432	-0.01508584
0.1644	-0.01584553
0.16448	-0.01579254
0.16456	-0.01560258
0.16464	-0.01576888
0.16472	-0.01574963
0.1648	-0.01576728
0.16488	-0.01586751
0.16496	-0.01548652
0.16504	-0.01433198
0.16512	-0.01342459
0.1652	-0.01263398
0.16528	-0.01256721
0.16536	-0.01318694
0.16544	-0.01366861
0.16552	-0.01423199
0.1656	-0.01491513
0.16568	-0.01468206
0.16576	-0.01397882
0.16584	-0.01396998
0.16592	-0.0141243
0.166	-0.01387259
0.16608	-0.01398626
0.16616	-0.01394213
0.16624	-0.01383145
0.16632	-0.01364441
0.1664	-0.01295588
0.16648	-0.01207327
0.16656	-0.01125882
0.16664	-0.01066226
0.16672	-0.009844159
0.1668	-0.00961712
0.16688	-0.009879909
0.16696	-0.01013403
0.16704	-0.009536983
0.16712	-0.008899504
0.1672	-0.008207005
0.16728	-0.007904444
0.16736	-0.008407892
0.16744	-0.008899855
0.16752	-0.009717327
0.1676	-0.009896539
0.16768	-0.009361046
0.16776	-0.00887035
0.16784	-0.008334687
0.16792	-0.008427932
0.168	-0.008476184
0.16808	-0.008512463
0.16816	-0.008453127
0.16824	-0.008913104
0.16832	-0.008777115
0.1684	-0.007472508
0.16848	-0.006783263
0.16856	-0.006423867
0.16864	-0.006528051
0.16872	-0.006587904
0.1688	-0.00644938
0.16888	-0.006224875
0.16896	-0.00633628
0.16904	-0.006697356
0.16912	-0.006643338
0.1692	-0.006173912
0.16928	-0.005268383
0.16936	-0.004648594
0.16944	-0.003568937
0.16952	-0.002848992
0.1696	-0.002015653
0.16968	-0.001436397
0.16976	-0.0009071183
0.16984	-0.0001743122
0.16992	0.0001583509
0.17	0.0005651938
0.17008	0.001084658
0.17016	0.002095728
0.17024	0.002699136
0.17032	0.002745291
0.1704	0.003340414
0.17048	0.003974106
0.17056	0.003891777
0.17064	0.003297026
0.17072	0.002846978
0.1708	0.003610163
0.17088	0.005407684
0.17096	0.006236062
0.17104	0.006616167
0.17112	0.006911919
0.1712	0.007408598
0.17128	0.007474186
0.17136	0.007014007
0.17144	0.006985988
0.17152	0.007229266
0.1716	0.008370028
0.17168	0.009553012
0.17176	0.009781615
0.17184	0.00981
0.17192	0.009678833
0.172	0.009693422
0.17208	0.009741096
0.17216	0.009632737
0.17224	0.009574451
0.17232	0.0100089
0.1724	0.009923403
0.17248	0.009493808
0.17256	0.009927749
0.17264	0.01084577
0.17272	0.01110485
0.1728	0.01136128
0.17288	0.01187671
0.17296	0.01247804
0.17304	0.0130763
0.17312	0.01362638
0.1732	0.01402464
0.17328	0.0144557
0.17336	0.01466324
0.17344	0.01470562
0.17352	0.01394577
0.1736	0.01360165
0.17368	0.01318789
0.17376	0.01285943
0.17384	0.01338375
0.17392	0.01416044
0.174	0.01459475
0.17408	0.01477688
0.17416	0.01515636
0.17424	0.01563546
0.17432	0.01630822
0.1744	0.01655233
0.17448	0.01743668
0.17456	0.01867723
0.17464	0.01947595
0.17472	0.01957902
0.1748	0.01942973
0.17488	0.01902725
0.17496	0.01896775
0.17504	0.01904597
0.17512	0.01906232
0.1752	0.0191228
0.17528	0.01971314
0.17536	0.02040121
0.17544	0.02078832
0.17552	0.02052343
0.1756	0.0201939
0.17568	0.02028862
0.17576	0.02097607
0.17584	0.02096592
0.17592	0.02031524
0.176	0.01950161
0.17608	0.01886009
0.17616	0.01912478
0.17624	0.01936909
0.17632	0.0195883
0.1764	0.01943243
0.17648	0.01963024
0.17656	0.01866954
0.17664	0.01788889
0.17672	0.01743653
0.1768	0.01686707
0.17688	0.01642643
0.17696	0.0162499
0.17704	0.01559926
0.17712	0.01440199
0.1772	0.01358438
0.17728	0.01271658
0.17736	0.01249453
0.17744	0.01174272
0.17752	0.01084301
0.1776	0.01005836
0.17768	0.009893524
0.17776	0.009417177
0.17784	0.008256178
0.17792	0.007531303
0.178	0.007192974
0.17808	0.007349744
0.17816	0.006959904
0.17824	0.006452006
0.17832	0.006279886
0.1784	0.005712747
0.17848	0.005017657
0.17856	0.004501147
0.17864	0.004355723
0.17872	0.004635426
0.1788	0.005250441
0.17888	0.005195615
0.17896	0.004537709
0.17904	0.004030296
0.17912	0.003384517
0.1792	0.002751471
0.17928	0.00172405
0.17936	0.0005836888
0.17944	0.0004299916
0.17952	0.0004332112
0.1796	0.0007308392
0.17968	0.0005274053
0.17976	6.1481e-5
0.17984	-9.772871e-5
0.17992	-0.0001583596
0.18	-6.919964e-5
0.18008	-0.0006986589
0.18016	-0.001324612
0.18024	-0.001225438
0.18032	-0.001086951
0.1804	-0.001478329
0.18048	-0.002173064
0.18056	-0.003215176
0.18064	-0.003684297
0.18072	-0.003577371
0.1808	-0.004088464
0.18088	-0.004912375
0.18096	-0.006007996
0.18104	-0.006741948
0.18112	-0.007483392
0.1812	-0.007843254
0.18128	-0.008284831
0.18136	-0.008350044
0.18144	-0.009545829
0.18152	-0.01073535
0.1816	-0.01047335
0.18168	-0.01046008
0.18176	-0.01053885
0.18184	-0.01044165
0.18192	-0.01081767
0.182	-0.01164995
0.18208	-0.0120304
0.18216	-0.01281566
0.18224	-0.01339292
0.18232	-0.01304559
0.1824	-0.01260496
0.18248	-0.01269385
0.18256	-0.01269486
0.18264	-0.01257645
0.18272	-0.01230882
0.1828	-0.01195701
0.18288	-0.01214772
0.18296	-0.01233621
0.18304	-0.01326757
0.18312	-0.01445114
0.1832	-0.01522527
0.18328	-0.01522437
0.18336	-0.01514973
0.18344	-0.01602537
0.18352	-0.01632885
0.1836	-0.01627511
0.18368	-0.01582803
0.18376	-0.01527306
0.18384	-0.01531832
0.18392	-0.01562254
0.184	-0.01567047
0.18408	-0.015934
0.18416	-0.01590369
0.18424	-0.01568402
0.18432	-0.01565187
0.1844	-0.01582
0.18448	-0.0158437
0.18456	-0.01606122
0.18464	-0.01613973
0.18472	-0.01584669
0.1848	-0.01544798
0.18488	-0.01485302
0.18496	-0.01411339
0.18504	-0.01384692
0.18512	-0.01377304
0.1852	-0.01318106
0.18528	-0.01232931
0.18536	-0.01173422
0.18544	-0.01179643
0.18552	-0.01209588
0.1856	-0.01290133
0.18568	-0.01353393
0.18576	-0.01421994
0.18584	-0.01456347
0.18592	-0.0147241
0.186	-0.01485709
0.18608	-0.01524435
0.18616	-0.01559065
0.18624	-0.01514718
0.18632	-0.01447323
0.1864	-0.01386313
0.18648	-0.01359566
0.18656	-0.01327055
0.18664	-0.01323987
0.18672	-0.01359357
0.1868	-0.01430517
0.18688	-0.01451961
0.18696	-0.01398108
0.18704	-0.01330678
0.18712	-0.01298277
0.1872	-0.01249821
0.18728	-0.01197819
0.18736	-0.01122737
0.18744	-0.01058654
0.18752	-0.00987797
0.1876	-0.009361922
0.18768	-0.009184219
0.18776	-0.009737126
0.18784	-0.009643386
0.18792	-0.01002112
0.188	-0.01081878
0.18808	-0.01077914
0.18816	-0.01049339
0.18824	-0.009732284
0.18832	-0.009331228
0.1884	-0.008554587
0.18848	-0.008096908
0.18856	-0.008649265
0.18864	-0.008648512
0.18872	-0.008022308
0.1888	-0.00735489
0.18888	-0.00680694
0.18896	-0.006475428
0.18904	-0.005563885
0.18912	-0.004421318
0.1892	-0.003337333
0.18928	-0.002568566
0.18936	-0.002772852
0.18944	-0.003860737
0.18952	-0.003723091
0.1896	-0.002960494
0.18968	-0.002307978
0.18976	-0.001811656
0.18984	-0.001408874
0.18992	-0.001023594
0.19	-0.0004524929
0.19008	-0.0002114372
0.19016	-0.0004966234
0.19024	-0.0004286176
0.19032	-7.502634e-5
0.1904	-9.127973e-5
0.19048	-0.000212368
0.19056	0.0001114255
0.19064	0.000335555
0.19072	0.000652101
0.1908	0.001405302
0.19088	0.001568596
0.19096	0.00183615
0.19104	0.002129904
0.19112	0.002802675
0.1912	0.003493391
0.19128	0.004327191
0.19136	0.005177945
0.19144	0.005970622
0.19152	0.006853006
0.1916	0.007831345
0.19168	0.008965727
0.19176	0.009224645
0.19184	0.009357967
0.19192	0.009687835
0.192	0.009975743
0.19208	0.01071418
0.19216	0.01110725
0.19224	0.01116496
0.19232	0.01192832
0.1924	0.01293607
0.19248	0.0130242
0.19256	0.01353507
0.19264	0.01385368
0.19272	0.01407505
0.1928	0.01429903
0.19288	0.01382451
0.19296	0.01429568
0.19304	0.01468598
0.19312	0.01516485
0.1932	0.01530016
0.19328	0.01506502
0.19336	0.01499256
0.19344	0.01446344
0.19352	0.01397151
0.1936	0.01374254
0.19368	0.01292734
0.19376	0.01244222
0.19384	0.01243296
0.19392	0.01212714
0.194	0.01214384
0.19408	0.01265808
0.19416	0.01329611
0.19424	0.0143103
0.19432	0.01565037
0.1944	0.01677911
0.19448	0.01733827
0.19456	0.01722343
0.19464	0.01726927
0.19472	0.01715456
0.1948	0.0171759
0.19488	0.01746754
0.19496	0.01763273
0.19504	0.01792014
0.19512	0.01791209
0.1952	0.01789631
0.19528	0.01777702
0.19536	0.01745104
0.19544	0.01702353
0.19552	0.01668035
0.1956	0.01702251
0.19568	0.01768132
0.19576	0.01758096
0.19584	0.01629524
0.19592	0.01523941
0.196	0.01477302
0.19608	0.01512054
0.19616	0.0155286
0.19624	0.01528443
0.19632	0.01499665
0.1964	0.01496353
0.19648	0.01536125
0.19656	0.01520361
0.19664	0.01502677
0.19672	0.01504573
0.1968	0.01509924
0.19688	0.01479471
0.19696	0.01437734
0.19704	0.01383946
0.19712	0.01353597
0.1972	0.01314879
0.19728	0.0123165
0.19736	0.01164597
0.19744	0.01116371
0.19752	0.0107422
0.1976	0.01068266
0.19768	0.01069791
0.19776	0.01002017
0.19784	0.009411587
0.19792	0.009021045
0.198	0.008694248
0.19808	0.008623665
0.19816	0.007861408
0.19824	0.007641417
0.19832	0.008242088
0.1984	0.008561014
0.19848	0.007993767
0.19856	0.007638741
0.19864	0.007592807
0.19872	0.007433685
0.1988	0.006539579
0.19888	0.006044015
0.19896	0.005459467
0.19904	0.005285954
0.19912	0.004459368
0.1992	0.003482794
0.19928	0.003387182
0.19936	0.003279286
0.19944	0.003538023
0.19952	0.003782383
0.1996	0.003955585
0.19968	0.003998128
0.19976	0.003856179
0.19984	0.003454904
0.19992	0.002598452
0.2	0.001858148
0.20008	0.001114004
0.20016	0.0007125482
0.20024	0.0004527902
0.20032	0.0004012603
0.2004	0.0005395956
0.20048	0.0001758942
0.20056	-0.0002506865
0.20064	-0.0008616881
0.20072	-0.000970952
0.2008	-0.001134275
0.20088	-0.001047547
0.20096	-0.0007958309
0.20104	-0.001370938
0.20112	-0.002335504
0.2012	-0.002989257
0.20128	-0.003511467
0.20136	-0.004255193
0.20144	-0.004386932
0.20152	-0.003715496
0.2016	-0.003763916
0.20168	-0.004319355
0.20176	-0.004773643
0.20184	-0.004739618
0.20192	-0.004934697
0.202	-0.005349712
0.20208	-0.00617337
0.20216	-0.007274934
0.20224	-0.007661634
0.20232	-0.007566171
0.2024	-0.007654489
0.20248	-0.008392231
0.20256	-0.009038505
0.20264	-0.009441642
0.20272	-0.00997879
0.2028	-0.01005383
0.20288	-0.01036709
0.20296	-0.01129785
0.20304	-0.01164107
0.20312	-0.01222869
0.2032	-0.01292755
0.20328	-0.01296748
0.20336	-0.01325785
0.20344	-0.01371212
0.20352	-0.01452308
0.2036	-0.01440834
0.20368	-0.01466069
0.20376	-0.0151454
0.20384	-0.01512504
0.20392	-0.01530317
0.204	-0.01494343
0.20408	-0.01540177
0.20416	-0.01533561
0.20424	-0.01542363
0.20432	-0.01562846
0.2044	-0.01610303
0.20448	-0.01678999
0.20456	-0.01624658
0.20464	-0.0149885
0.20472	-0.01444446
0.2048	-0.0143665
0.20488	-0.0142039
0.20496	-0.01425031
0.20504	-0.01416041
0.20512	-0.01514593
0.2052	-0.01546977
0.20528	-0.0150702
0.20536	-0.01484599
0.20544	-0.01442714
0.20552	-0.01453317
0.2056	-0.01428334
0.20568	-0.01411813
0.20576	-0.01379539
0.20584	-0.01305784
0.20592	-0.01255836
0.206	-0.01233221
0.20608	-0.01260362
0.20616	-0.01346669
0.20624	-0.01397224
0.20632	-0.01438294
0.2064	-0.01468032
0.20648	-0.01418987
0.20656	-0.01417682
0.20664	-0.01442667
0.20672	-0.01476645
0.2068	-0.01493801
0.20688	-0.01517093
0.20696	-0.01483062
0.20704	-0.01513295
0.20712	-0.01505681
0.2072	-0.01392374
0.20728	-0.01321553
0.20736	-0.01250599
0.20744	-0.01176174
0.20752	-0.01128589
0.2076	-0.01126774
0.20768	-0.01096079
0.20776	-0.01076758
0.20784	-0.01037355
0.20792	-0.009695933
0.208	-0.009643928
0.20808	-0.009676282
0.20816	-0.009639931
0.20824	-0.008800087
0.20832	-0.007271195
0.2084	-0.005931596
0.20848	-0.004875021
0.20856	-0.003950137
0.20864	-0.00356256
0.20872	-0.003398765
0.2088	-0.003438957
0.20888	-0.003433503
0.20896	-0.003215675
0.20904	-0.003226834
0.20912	-0.003241868
0.2092	-0.003290487
0.20928	-0.003045245
0.20936	-0.002741588
0.20944	-0.002688526
0.20952	-0.002523609
0.2096	-0.002627341
0.20968	-0.002882444
0.20976	-0.003088001
0.20984	-0.003159623
0.20992	-0.003955728
0.21	-0.004498387
0.21008	-0.004642528
0.21016	-0.004445036
0.21024	-0.00382353
0.21032	-0.002760975
0.2104	-0.001763324
0.21048	-0.001287948
0.21056	7.187491e-5
0.21064	0.001162644
0.21072	0.001254162
0.2108	0.0006224054
0.21088	0.0005348189
0.21096	0.001238694
0.21104	0.001645868
0.21112	0.002123821
0.2112	0.002721807
0.21128	0.002985709
0.21136	0.003631457
0.21144	0.005189618
0.21152	0.006547543
0.2116	0.007316755
0.21168	0.007968925
0.21176	0.008101257
0.21184	0.008451702
0.21192	0.008426338
0.212	0.007868038
0.21208	0.007303641
0.21216	0.007321783
0.21224	0.007573099
0.21232	0.00777526
0.2124	0.008648382
0.21248	0.009512839
0.21256	0.009661957
0.21264	0.009976475
0.21272	0.0107609
0.2128	0.01140773
0.21288	0.01202097
0.21296	0.0125869
0.21304	0.01270458
0.21312	0.01284263
0.2132	0.01252079
0.21328	0.0127496
0.21336	0.01336647
0.21344	0.01378201
0.21352	0.01426671
0.2136	0.01466501
0.21368	0.01498262
0.21376	0.01517171
0.21384	0.01476874
0.21392	0.01454303
0.214	0.01479159
0.21408	0.01471446
0.21416	0.01457894
0.21424	0.01498348
0.21432	0.01519856
0.2144	0.01525758
0.21448	0.0151847
0.21456	0.01539736
0.21464	0.01534962
0.21472	0.01517817
0.2148	0.01456392
0.21488	0.01396855
0.21496	0.01403765
0.21504	0.0146392
0.21512	0.01560817
0.2152	0.01622112
0.21528	0.01658799
0.21536	0.01669592
0.21544	0.01718666
0.21552	0.01704336
0.2156	0.01730074
0.21568	0.0177389
0.21576	0.01850125
0.21584	0.01919172
0.21592	0.01942563
0.216	0.01941476
0.21608	0.01887947
0.21616	0.01833575
0.21624	0.01779036
0.21632	0.01792108
0.2164	0.01780855
0.21648	0.01745747
0.21656	0.01656923
0.21664	0.01606173
0.21672	0.01665416
0.2168	0.01683838
0.21688	0.01655445
0.21696	0.01604251
0.21704	0.0161037
0.21712	0.01555787
0.2172	0.01524208
0.21728	0.01540165
0.21736	0.01554621
0.21744	0.01579183
0.21752	0.01533247
0.2176	0.01491425
0.21768	0.014403
0.21776	0.01366061
0.21784	0.0134055
0.21792	0.01340819
0.218	0.01342212
0.21808	0.01256644
0.21816	0.01210429
0.21824	0.01196348
0.21832	0.0117279
0.2184	0.01105967
0.21848	0.01045792
0.21856	0.009426077
0.21864	0.008681702
0.21872	0.007835244
0.2188	0.006875877
0.21888	0.005686814
0.21896	0.004678166
0.21904	0.003947255
0.21912	0.002659116
0.2192	0.001532145
0.21928	0.001271153
0.21936	0.001127361
0.21944	0.001247389
0.21952	0.00116827
0.2196	0.0009384055
0.21968	0.0008802623
0.21976	0.001225144
0.21984	0.001063624
0.21992	0.0003366375
0.22	1.496956e-5
0.22008	-0.0001786868
0.22016	-0.0001320454
0.22024	-0.000148457
0.22032	-6.601572e-5
0.2204	-0.0007204449
0.22048	-0.001461584
0.22056	-0.001924076
0.22064	-0.00262815
0.22072	-0.003291975
0.2208	-0.004376728
0.22088	-0.005120371
0.22096	-0.00565152
0.22104	-0.005323588
0.22112	-0.004734226
0.2212	-0.004526553
0.22128	-0.005338435
0.22136	-0.006433468
0.22144	-0.007109774
0.22152	-0.007397896
0.2216	-0.00757796
0.22168	-0.007406386
0.22176	-0.007420709
0.22184	-0.008020968
0.22192	-0.008449388
0.222	-0.009509371
0.22208	-0.01037905
0.22216	-0.01032878
0.22224	-0.01009931
0.22232	-0.0102062
0.2224	-0.01051276
0.22248	-0.01051726
0.22256	-0.01044537
0.22264	-0.01068832
0.22272	-0.01078652
0.2228	-0.01069972
0.22288	-0.01112612
0.22296	-0.01169925
0.22304	-0.01245814
0.22312	-0.01338948
0.2232	-0.01420661
0.22328	-0.01517217
0.22336	-0.01589339
0.22344	-0.01627441
0.22352	-0.01570933
0.2236	-0.01543364
0.22368	-0.01555184
0.22376	-0.01550359
0.22384	-0.01613458
0.22392	-0.016404
0.224	-0.01660839
0.22408	-0.01667112
0.22416	-0.01661707
0.22424	-0.01668526
0.22432	-0.01627484
0.2244	-0.01622724
0.22448	-0.01643324
0.22456	-0.01676077
0.22464	-0.01722616
0.22472	-0.01728256
0.2248	-0.01665029
0.22488	-0.0161092
0.22496	-0.01594974
0.22504	-0.0158822
0.22512	-0.01587122
0.2252	-0.01581417
0.22528	-0.01547227
0.22536	-0.01479516
0.22544	-0.01480885
0.22552	-0.01506618
0.2256	-0.01471231
0.22568	-0.01320458
0.22576	-0.01217229
0.22584	-0.01218619
0.22592	-0.01145406
0.226	-0.01043222
0.22608	-0.01012982
0.22616	-0.009937926
0.22624	-0.00964291
0.22632	-0.01028577
0.2264	-0.01061744
0.22648	-0.01099858
0.22656	-0.01113892
0.22664	-0.01085184
0.22672	-0.01087928
0.2268	-0.01057145
0.22688	-0.01072948
0.22696	-0.01028276
0.22704	-0.009704831
0.22712	-0.008792362
0.2272	-0.007823918
0.22728	-0.007045995
0.22736	-0.00676441
0.22744	-0.006707083
0.22752	-0.006497736
0.2276	-0.006405864
0.22768	-0.006156969
0.22776	-0.005375182
0.22784	-0.004386204
0.22792	-0.003758528
0.228	-0.003320156
0.22808	-0.002785714
0.22816	-0.0018927
0.22824	-0.001313264
0.22832	-0.001201382
0.2284	-0.0005534334
0.22848	-0.0002370467
0.22856	-2.149688e-5
0.22864	-0.0003943203
0.22872	-0.001432075
0.2288	-0.001719146
0.22888	-0.001440176
0.22896	-0.0008783262
0.22904	-0.0003695514
0.22912	-0.0002332003
0.2292	3.583986e-5
0.22928	0.0004490347
0.22936	0.00122083
0.22944	0.001762148
0.22952	0.001410879
0.2296	0.001017474
0.22968	0.001124271
0.22976	0.001201714
0.22984	0.0006179049
0.22992	0.0005875781
0.23	0.001208292
0.23008	0.001855738
0.23016	0.002874149
0.23024	0.003566255
0.23032	0.003740668
0.2304	0.004030838
0.23048	0.004373437
0.23056	0.003949209
0.23064	0.003558186
0.23072	0.003255845
0.2308	0.003113869
0.23088	0.00340786
0.23096	0.004086178
0.23104	0.004093377
0.23112	0.003735003
0.2312	0.004193919
0.23128	0.004983454
0.23136	0.00572383
0.23144	0.006422074
0.23152	0.007201228
0.2316	0.007310288
0.23168	0.007819317
0.23176	0.008486047
0.23184	0.008699675
0.23192	0.009065766
0.232	0.009012485
0.23208	0.008570261
0.23216	0.008191272
0.23224	0.008484628
0.23232	0.008512005
0.2324	0.008026345
0.23248	0.008033873
0.23256	0.007971025
0.23264	0.007957057
0.23272	0.007576536
0.2328	0.007612162
0.23288	0.008112965
0.23296	0.008436633
0.23304	0.009180832
0.23312	0.009387054
0.2332	0.009899634
0.23328	0.01039945
0.23336	0.01071055
0.23344	0.01141354
0.23352	0.01186063
0.2336	0.01207526
0.23368	0.01209678
0.23376	0.01214849
0.23384	0.01210799
0.23392	0.01164282
0.234	0.01136613
0.23408	0.01171119
0.23416	0.01216781
0.23424	0.01199681
0.23432	0.01257137
0.2344	0.01303695
0.23448	0.01359101
0.23456	0.01406345
0.23464	0.01479522
0.23472	0.01543565
0.2348	0.01586343
0.23488	0.01599913
0.23496	0.01524597
0.23504	0.01481377
0.23512	0.01466537
0.2352	0.01492751
0.23528	0.01506172
0.23536	0.0156437
0.23544	0.01648504
0.23552	0.01663977
0.2356	0.01648423
0.23568	0.0155988
0.23576	0.01454472
0.23584	0.01342226
0.23592	0.01294519
0.236	0.0135825
0.23608	0.01451338
0.23616	0.0150322
0.23624	0.0163234
0.23632	0.01721051
0.2364	0.01761726
0.23648	0.01807754
0.23656	0.01832463
0.23664	0.01870332
0.23672	0.01908425
0.2368	0.01920309
0.23688	0.01900596
0.23696	0.01868968
0.23704	0.01837464
0.23712	0.01740635
0.2372	0.0165429
0.23728	0.01616939
0.23736	0.01578496
0.23744	0.015813
0.23752	0.01528542
0.2376	0.01463474
0.23768	0.01394278
0.23776	0.01324428
0.23784	0.01217825
0.23792	0.01146024
0.238	0.01158766
0.23808	0.01123485
0.23816	0.01088786
0.23824	0.01061335
0.23832	0.010311
0.2384	0.009831041
0.23848	0.009223217
0.23856	0.008931267
0.23864	0.008945629
0.23872	0.009267402
0.2388	0.00934626
0.23888	0.009985261
0.23896	0.01039754
0.23904	0.01007966
0.23912	0.009671187
0.2392	0.008766836
0.23928	0.007333403
0.23936	0.006503494
0.23944	0.006219419
0.23952	0.005803473
0.2396	0.004517928
0.23968	0.002763095
0.23976	0.001724248
0.23984	0.0007193807
0.23992	0.0008183858
0.24	0.0008873268
0.24008	0.0005666877
0.24016	8.115807e-5
0.24024	-0.0009380617
0.24032	-0.001727686
0.2404	-0.001655927
0.24048	-0.001594186
0.24056	-0.00144036
0.24064	-0.0007195636
0.24072	-0.0001062531
0.2408	-0.0002394538
0.24088	-0.0007651616
0.24096	-0.0004908823
0.24104	-0.0003550065
0.24112	-0.0004725749
0.2412	-0.0003982687
0.24128	-0.000827558
0.24136	-0.0007584519
0.24144	-0.0002387054
0.24152	-0.0004558156
0.2416	0.0001978232
0.24168	-0.0002974536
0.24176	-0.00139853
0.24184	-0.002729502
0.24192	-0.003478232
0.242	-0.003980186
0.24208	-0.004586833
0.24216	-0.005603203
0.24224	-0.007250248
0.24232	-0.008216333
0.2424	-0.008491667
0.24248	-0.007924092
0.24256	-0.007338037
0.24264	-0.007036864
0.24272	-0.006421539
0.2428	-0.005974499
0.24288	-0.005799463
0.24296	-0.006013872
0.24304	-0.00626106
0.24312	-0.00716793
0.2432	-0.008101727
0.24328	-0.008300109
0.24336	-0.008531717
0.24344	-0.009341042
0.24352	-0.009671754
0.2436	-0.009727621
0.24368	-0.01006266
0.24376	-0.010534
0.24384	-0.01073276
0.24392	-0.01118438
0.244	-0.01130497
0.24408	-0.01083797
0.24416	-0.01090461
0.24424	-0.01162786
0.24432	-0.01274274
0.2444	-0.01337957
0.24448	-0.01313054
0.24456	-0.01361033
0.24464	-0.01403704
0.24472	-0.01483609
0.2448	-0.01522628
0.24488	-0.0155435
0.24496	-0.01567696
0.24504	-0.01510713
0.24512	-0.01520705
0.2452	-0.01583501
0.24528	-0.01587798
0.24536	-0.0151268
0.24544	-0.01394349
0.24552	-0.013163
0.2456	-0.01371109
0.24568	-0.01461016
0.24576	-0.01455172
0.24584	-0.01402978
0.24592	-0.01380363
0.246	-0.0142469
0.24608	-0.01501429
0.24616	-0.01472047
0.24624	-0.0138537
0.24632	-0.01352697
0.2464	-0.01405113
0.24648	-0.01441689
0.24656	-0.01470533
0.24664	-0.01432413
0.24672	-0.01351249
0.2468	-0.01334685
0.24688	-0.01328505
0.24696	-0.01295251
0.24704	-0.01229277
0.24712	-0.01142981
0.2472	-0.010798
0.24728	-0.01047077
0.24736	-0.009744643
0.24744	-0.008881516
0.24752	-0.008381184
0.2476	-0.008171258
0.24768	-0.008683067
0.24776	-0.009061511
0.24784	-0.00902763
0.24792	-0.009346157
0.248	-0.009807675
0.24808	-0.01007704
0.24816	-0.009514859
0.24824	-0.008835932
0.24832	-0.008734346
0.2484	-0.009280496
0.24848	-0.009976805
0.24856	-0.00986704
0.24864	-0.009862434
0.24872	-0.009496451
0.2488	-0.008983955
0.24888	-0.008485821
0.24896	-0.0081042
0.24904	-0.007314341
0.24912	-0.006743533
0.2492	-0.006390361
0.24928	-0.006578895
0.24936	-0.006591037
0.24944	-0.00700806
0.24952	-0.007511696
0.2496	-0.007742666
0.24968	-0.007477736
0.24976	-0.007155094
0.24984	-0.006588916
0.24992	-0.005471038
0.25	-0.004221767
0.25008	-0.003001014
0.25016	-0.001897448
0.25024	-0.0008726161
0.25032	-0.0008061918
0.2504	-0.0005493428
0.25048	-0.0003355385
0.25056	-0.0004181007
0.25064	8.562513e-5
0.25072	0.000511992
0.2508	0.0002986785
0.25088	0.0007622726
0.25096	0.001927161
0.25104	0.003440242
0.25112	0.004812083
0.2512	0.005734433
0.25128	0.006518321
0.25136	0.006888961
0.25144	0.006509021
0.25152	0.006298087
0.2516	0.006384562
0.25168	0.006147541
0.25176	0.00602936
0.25184	0.00614731
0.25192	0.006799685
0.252	0.00763222
0.25208	0.007805631
0.25216	0.008449771
0.25224	0.009015329
0.25232	0.009476136
0.2524	0.01001501
0.25248	0.01021869
0.25256	0.01031041
0.25264	0.009972716
0.25272	0.009546556
0.2528	0.009081955
0.25288	0.009028666
0.25296	0.00966774
0.25304	0.01024982
0.25312	0.01069579
0.2532	0.01109524
0.25328	0.01111459
0.25336	0.0112718
0.25344	0.01156065
0.25352	0.01188535
0.2536	0.01187306
0.25368	0.01215583
0.25376	0.01235871
0.25384	0.01216527
0.25392	0.01167543
0.254	0.01145058
0.25408	0.01112964
0.25416	0.0112646
0.25424	0.011668
0.25432	0.01255091
0.2544	0.01330185
0.25448	0.01337319
0.25456	0.01374654
0.25464	0.01390298
0.25472	0.01392907
0.2548	0.01429969
0.25488	0.01437635
0.25496	0.01490835
0.25504	0.01483996
0.25512	0.0146271
0.2552	0.01476002
0.25528	0.01495482
0.25536	0.01473296
0.25544	0.01364642
0.25552	0.01305291
0.2556	0.01269865
0.25568	0.01261052
0.25576	0.01283364
0.25584	0.01283467
0.25592	0.01280533
0.256	0.01279622
0.25608	0.0126098
0.25616	0.01207353
0.25624	0.01234502
0.25632	0.01299349
0.2564	0.01322158
0.25648	0.01338702
0.25656	0.0131527
0.25664	0.01284735
0.25672	0.01254543
0.2568	0.01236022
0.25688	0.01248201
0.25696	0.0121198
0.25704	0.01178325
0.25712	0.01131118
0.2572	0.01093728
0.25728	0.01101734
0.25736	0.01129416
0.25744	0.01105823
0.25752	0.01153495
0.2576	0.01154928
0.25768	0.01137065
0.25776	0.0109321
0.25784	0.01008598
0.25792	0.009694981
0.258	0.009617627
0.25808	0.01003065
0.25816	0.009553101
0.25824	0.008903628
0.25832	0.009069405
0.2584	0.009184831
0.25848	0.009140192
0.25856	0.009061584
0.25864	0.008059628
0.25872	0.007303555
0.2588	0.00652025
0.25888	0.005967466
0.25896	0.006358458
0.25904	0.006219925
0.25912	0.005687311
0.2592	0.005510498
0.25928	0.005169659
0.25936	0.004624492
0.25944	0.003994146
0.25952	0.003300152
0.2596	0.002704292
0.25968	0.002877918
0.25976	0.003029246
0.25984	0.002675813
0.25992	0.002195543
0.26	0.002560886
0.26008	0.002444528
0.26016	0.001762461
0.26024	0.0007886299
0.26032	-7.151179e-5
0.2604	-0.0002778591
0.26048	2.841077e-5
0.26056	0.0004351531
0.26064	0.0003371974
0.26072	-0.0003505688
0.2608	-0.001431796
0.26088	-0.001706419
0.26096	-0.002029411
0.26104	-0.002283238
0.26112	-0.002383224
0.2612	-0.002451651
0.26128	-0.002656852
0.26136	-0.002411247
0.26144	-0.002626085
0.26152	-0.002818786
0.2616	-0.003409385
0.26168	-0.00413818
0.26176	-0.004503743
0.26184	-0.004870997
0.26192	-0.005545333
0.262	-0.006164329
0.26208	-0.007350371
0.26216	-0.008344224
0.26224	-0.008622623
0.26232	-0.009306028
0.2624	-0.009691018
0.26248	-0.009671271
0.26256	-0.009578131
0.26264	-0.009992682
0.26272	-0.01002451
0.2628	-0.01008303
0.26288	-0.009911843
0.26296	-0.01032295
0.26304	-0.01133573
0.26312	-0.01239684
0.2632	-0.01279622
0.26328	-0.01235242
0.26336	-0.01194421
0.26344	-0.01145109
0.26352	-0.01116878
0.2636	-0.01071768
0.26368	-0.0104947
0.26376	-0.009450541
0.26384	-0.009031565
0.26392	-0.008797324
0.264	-0.008185168
0.26408	-0.008407626
0.26416	-0.008832494
0.26424	-0.009547792
0.26432	-0.01045923
0.2644	-0.0111075
0.26448	-0.01159627
0.26456	-0.01188912
0.26464	-0.01237707
0.26472	-0.01282915
0.2648	-0.01340809
0.26488	-0.01413324
0.26496	-0.01410743
0.26504	-0.01419639
0.26512	-0.01463866
0.2652	-0.01481881
0.26528	-0.01513587
0.26536	-0.01513795
0.26544	-0.01471089
0.26552	-0.0148847
0.2656	-0.0147792
0.26568	-0.01414292
0.26576	-0.01386056
0.26584	-0.0135685
0.26592	-0.01352849
0.266	-0.01401137
0.26608	-0.01438272
0.26616	-0.01402703
0.26624	-0.0132238
0.26632	-0.01260607
0.2664	-0.01248053
0.26648	-0.01278488
0.26656	-0.01231115
0.26664	-0.01266024
0.26672	-0.01275055
0.2668	-0.0125461
0.26688	-0.01227077
0.26696	-0.01160393
0.26704	-0.01178935
0.26712	-0.01193798
0.2672	-0.01238092
0.26728	-0.01305672
0.26736	-0.01290549
0.26744	-0.01249145
0.26752	-0.01203319
0.2676	-0.01181301
0.26768	-0.01165358
0.26776	-0.01142289
0.26784	-0.01129283
0.26792	-0.01174696
0.268	-0.01162789
0.26808	-0.01180312
0.26816	-0.01226794
0.26824	-0.0124071
0.26832	-0.01259797
0.2684	-0.01272368
0.26848	-0.01237701
0.26856	-0.01133874
0.26864	-0.01018681
0.26872	-0.009200507
0.2688	-0.008125278
0.26888	-0.007145179
0.26896	-0.006379494
0.26904	-0.006584924
0.26912	-0.006727848
0.2692	-0.006385978
0.26928	-0.005777166
0.26936	-0.005619464
0.26944	-0.005243926
0.26952	-0.004761135
0.2696	-0.004560822
0.26968	-0.003999715
0.26976	-0.003206737
0.26984	-0.001910589
0.26992	-0.001618874
0.27	-0.0009892009
0.27008	-0.0006183745
0.27016	-0.0002267351
0.27024	-0.0001332798
0.27032	-0.0006964193
0.2704	-0.000632597
0.27048	-2.432769e-5
0.27056	0.0001612569
0.27064	5.803853e-5
0.27072	0.0004903274
0.2708	0.00113827
0.27088	0.001659669
0.27096	0.002316662
0.27104	0.0034924
0.27112	0.004544922
0.2712	0.004824664
0.27128	0.00519937
0.27136	0.005030208
0.27144	0.004603563
0.27152	0.00462074
0.2716	0.005148456
0.27168	0.005040869
0.27176	0.004807246
0.27184	0.005561512
0.27192	0.006600123
0.272	0.007077274
0.27208	0.007203848
0.27216	0.007138438
0.27224	0.006936495
0.27232	0.007049015
0.2724	0.007491977
0.27248	0.00780259
0.27256	0.008397206
0.27264	0.008296507
0.27272	0.008328665
0.2728	0.008243907
0.27288	0.008348529
0.27296	0.008679097
0.27304	0.008976109
0.27312	0.00891948
0.2732	0.008951669
0.27328	0.009225512
0.27336	0.009434841
0.27344	0.01022207
0.27352	0.01112782
0.2736	0.01159893
0.27368	0.01176223
0.27376	0.01134545
0.27384	0.01106901
0.27392	0.01029413
0.274	0.01004282
0.27408	0.009738151
0.27416	0.01013349
0.27424	0.01062274
0.27432	0.00993761
0.2744	0.009799409
0.27448	0.01009278
0.27456	0.009943224
0.27464	0.009371363
0.27472	0.009704866
0.2748	0.01015267
0.27488	0.00987857
0.27496	0.008751543
0.27504	0.008748035
0.27512	0.009579092
0.2752	0.01002137
0.27528	0.01051251
0.27536	0.01042946
0.27544	0.01045644
0.27552	0.009599982
0.2756	0.008860008
0.27568	0.009025398
0.27576	0.009354038
0.27584	0.009807686
0.27592	0.01041086
0.276	0.010901
0.27608	0.01143097
0.27616	0.01154749
0.27624	0.01136439
0.27632	0.01162135
0.2764	0.01132499
0.27648	0.01070516
0.27656	0.01017653
0.27664	0.009603352
0.27672	0.009711028
0.2768	0.01013178
0.27688	0.01009618
0.27696	0.01005965
0.27704	0.009918129
0.27712	0.009633661
0.2772	0.009460388
0.27728	0.009485202
0.27736	0.009066097
0.27744	0.008256887
0.27752	0.006762316
0.2776	0.006097488
0.27768	0.005809155
0.27776	0.005843048
0.27784	0.0060933
0.27792	0.006576607
0.278	0.00658819
0.27808	0.006766109
0.27816	0.006461454
0.27824	0.00612594
0.27832	0.006719061
0.2784	0.006845492
0.27848	0.006593199
0.27856	0.006090615
0.27864	0.00575018
0.27872	0.005040789
0.2788	0.00435021
0.27888	0.004827886
0.27896	0.005018591
0.27904	0.004952125
0.27912	0.004682233
0.2792	0.004011984
0.27928	0.003240842
0.27936	0.0024717
0.27944	0.001101185
0.27952	0.0003858497
0.2796	-6.255945e-5
0.27968	-0.0001049436
0.27976	-0.0003217339
0.27984	-0.0005612003
0.27992	-0.0004448858
0.28	-0.0004899671
0.28008	-0.0007139199
0.28016	-0.001511033
0.28024	-0.001439207
0.28032	-0.001246145
0.2804	-0.001440382
0.28048	-0.00156808
0.28056	-0.001873129
0.28064	-0.001978268
0.28072	-0.001906608
0.2808	-0.002542641
0.28088	-0.003484119
0.28096	-0.004252647
0.28104	-0.005146698
0.28112	-0.005751105
0.2812	-0.005998059
0.28128	-0.005997178
0.28136	-0.006030301
0.28144	-0.006092098
0.28152	-0.006263777
0.2816	-0.006864382
0.28168	-0.007950598
0.28176	-0.008735554
0.28184	-0.009167373
0.28192	-0.009708827
0.282	-0.009689996
0.28208	-0.009714212
0.28216	-0.009656322
0.28224	-0.009412784
0.28232	-0.009562867
0.2824	-0.009992387
0.28248	-0.01030718
0.28256	-0.0103927
0.28264	-0.01043378
0.28272	-0.01021571
0.2828	-0.00911564
0.28288	-0.00911955
0.28296	-0.009831258
0.28304	-0.01004805
0.28312	-0.01020483
0.2832	-0.01048408
0.28328	-0.01062817
0.28336	-0.01108853
0.28344	-0.01226186
0.28352	-0.01343891
0.2836	-0.01466637
0.28368	-0.01550061
0.28376	-0.01561767
0.28384	-0.01524681
0.28392	-0.01533524
0.284	-0.01609833
0.28408	-0.01617949
0.28416	-0.01626488
0.28424	-0.01649528
0.28432	-0.01707491
0.2844	-0.01804424
0.28448	-0.0188995
0.28456	-0.01899011
0.28464	-0.01894119
0.28472	-0.0189578
0.2848	-0.01882195
0.28488	-0.01869381
0.28496	-0.01855478
0.28504	-0.01834754
0.28512	-0.01800731
0.2852	-0.01778701
0.28528	-0.01819025
0.28536	-0.01833204
0.28544	-0.01847995
0.28552	-0.01839445
0.2856	-0.01847105
0.28568	-0.01920614
0.28576	-0.01971002
0.28584	-0.01958285
0.28592	-0.01862348
0.286	-0.01755367
0.28608	-0.01688244
0.28616	-0.01681837
0.28624	-0.01663875
0.28632	-0.01629848
0.2864	-0.01520988
0.28648	-0.01418072
0.28656	-0.01362176
0.28664	-0.01267147
0.28672	-0.01176113
0.2868	-0.01129294
0.28688	-0.01102542
0.28696	-0.01112824
0.28704	-0.01131412
0.28712	-0.01078697
0.2872	-0.01049238
0.28728	-0.00987603
0.28736	-0.00921525
0.28744	-0.007785475
0.28752	-0.005604585
0.2876	-0.003785487
0.28768	-0.003250752
0.28776	-0.003476068
0.28784	-0.004041317
0.28792	-0.003817115
0.288	-0.003503735
0.28808	-0.003600077
0.28816	-0.003731847
0.28824	-0.003777066
0.28832	-0.003707291
0.2884	-0.00321222
0.28848	-0.002625616
0.28856	-0.00252063
0.28864	-0.003135177
0.28872	-0.003275333
0.2888	-0.002719196
0.28888	-0.001865306
0.28896	-0.001376288
0.28904	-0.001305173
0.28912	-0.001304177
0.2892	-0.0009853775
0.28928	-0.0002341273
0.28936	0.0003976132
0.28944	0.0006864619
0.28952	0.0005177314
0.2896	-0.0001367622
0.28968	-0.0001924157
0.28976	0.0001629897
0.28984	0.0009908213
0.28992	0.001492154
0.29	0.001636603
0.29008	0.002433091
0.29016	0.002845524
0.29024	0.00323568
0.29032	0.003695904
0.2904	0.004064341
0.29048	0.004434705
0.29056	0.004136854
0.29064	0.003655244
0.29072	0.00401307
0.2908	0.005021113
0.29088	0.006306937
0.29096	0.006805356
0.29104	0.006875824
0.29112	0.006913541
0.2912	0.006683597
0.29128	0.006788381
0.29136	0.007272081
0.29144	0.007661108
0.29152	0.007782215
0.2916	0.008170508
0.29168	0.00820375
0.29176	0.008071528
0.29184	0.008778635
0.29192	0.009103377
0.292	0.009200419
0.29208	0.0095576
0.29216	0.01053701
0.29224	0.01061634
0.29232	0.01019004
0.2924	0.009901988
0.29248	0.009824897
0.29256	0.01040249
0.29264	0.01108393
0.29272	0.0115683
0.2928	0.01178828
0.29288	0.01191298
0.29296	0.0116609
0.29304	0.01190979
0.29312	0.01311233
0.2932	0.01374844
0.29328	0.01394113
0.29336	0.01427172
0.29344	0.01465945
0.29352	0.01404909
0.2936	0.01320908
0.29368	0.01356657
0.29376	0.01389815
0.29384	0.01431336
0.29392	0.01475527
0.294	0.01478116
0.29408	0.0150249
0.29416	0.01527694
0.29424	0.01545887
0.29432	0.01561222
0.2944	0.01603872
0.29448	0.01615857
0.29456	0.01583172
0.29464	0.01559904
0.29472	0.01569093
0.2948	0.01569177
0.29488	0.01560073
0.29496	0.01659193
0.29504	0.01704981
0.29512	0.01689534
0.2952	0.01603923
0.29528	0.01510181
0.29536	0.01545441
0.29544	0.01544259
0.29552	0.01530537
0.2956	0.0149596
0.29568	0.01468262
0.29576	0.01441931
0.29584	0.01391336
0.29592	0.01347073
0.296	0.0137522
0.29608	0.01375162
0.29616	0.01371342
0.29624	0.01403465
0.29632	0.01423177
0.2964	0.0146173
0.29648	0.01474785
0.29656	0.01462084
0.29664	0.01463324
0.29672	0.01413287
0.2968	0.01342097
0.29688	0.01238171
0.29696	0.01114163
0.29704	0.01060101
0.29712	0.01064113
0.2972	0.01007702
0.29728	0.01009962
0.29736	0.01000184
0.29744	0.009108465
0.29752	0.008878138
0.2976	0.009083031
0.29768	0.009398248
0.29776	0.009619623
0.29784	0.009963485
0.29792	0.01051316
0.298	0.01024978
0.29808	0.0100385
0.29816	0.009301646
0.29824	0.008607637
0.29832	0.007813519
0.2984	0.006998811
0.29848	0.005997289
0.29856	0.005401922
0.29864	0.005402143
0.29872	0.005419574
0.2988	0.005265806
0.29888	0.005024486
0.29896	0.005210508
0.29904	0.005258991
0.29912	0.004802899
0.2992	0.004048257
0.29928	0.00336445
0.29936	0.002701532
0.29944	0.002354428
0.29952	0.002116669
0.2996	0.001132417
0.29968	0.0003104395
0.29976	-0.0002869212
0.29984	-0.001178842
0.29992	-0.001868325
0.3	-0.002439292
0.30008	-0.002533299
0.30016	-0.002160281
0.30024	-0.001490976
0.30032	-0.001676283
0.3004	-0.001959825
0.30048	-0.002126587
0.30056	-0.002291294
0.30064	-0.002920429
0.30072	-0.003538794
0.3008	-0.003760107
0.30088	-0.003858752
0.30096	-0.004381345
0.30104	-0.005055976
0.30112	-0.005193606
0.3012	-0.005364172
0.30128	-0.005493939
0.30136	-0.005672575
0.30144	-0.006309866
0.30152	-0.006865189
0.3016	-0.007224859
0.30168	-0.007099151
0.30176	-0.006538649
0.30184	-0.005993505
0.30192	-0.005672687
0.302	-0.005092183
0.30208	-0.004508235
0.30216	-0.00423063
0.30224	-0.005078643
0.30232	-0.005604563
0.3024	-0.006117849
0.30248	-0.007161077
0.30256	-0.007709146
0.30264	-0.008370996
0.30272	-0.009673839
0.3028	-0.01070504
0.30288	-0.01085478
0.30296	-0.01135241
0.30304	-0.01179563
0.30312	-0.01216962
0.3032	-0.01315841
0.30328	-0.01376389
0.30336	-0.01394042
0.30344	-0.01425549
0.30352	-0.01436492
0.3036	-0.01427412
0.30368	-0.01440112
0.30376	-0.01503204
0.30384	-0.01603475
0.30392	-0.01680241
0.304	-0.01629146
0.30408	-0.01634207
0.30416	-0.01695768
0.30424	-0.01770545
0.30432	-0.01886501
0.3044	-0.0193557
0.30448	-0.01871911
0.30456	-0.01814945
0.30464	-0.01728373
0.30472	-0.01696952
0.3048	-0.01719402
0.30488	-0.0175352
0.30496	-0.01792821
0.30504	-0.01831236
0.30512	-0.01824675
0.3052	-0.01793826
0.30528	-0.01737632
0.30536	-0.01692359
0.30544	-0.01617483
0.30552	-0.01616921
0.3056	-0.01622879
0.30568	-0.01591992
0.30576	-0.01595192
0.30584	-0.01643263
0.30592	-0.01690569
0.306	-0.01705718
0.30608	-0.01720762
0.30616	-0.01760339
0.30624	-0.01777881
0.30632	-0.01775144
0.3064	-0.01772777
0.30648	-0.01708925
0.30656	-0.01584999
0.30664	-0.01484153
0.30672	-0.01412882
0.3068	-0.01421019
0.30688	-0.01418465
0.30696	-0.01431196
0.30704	-0.01443362
0.30712	-0.01466868
0.3072	-0.0144996
0.30728	-0.01380015
0.30736	-0.0132025
0.30744	-0.01245175
0.30752	-0.01147625
0.3076	-0.01056725
0.30768	-0.01044207
0.30776	-0.01051387
0.30784	-0.01047848
0.30792	-0.01077306
0.308	-0.01154448
0.30808	-0.01232239
0.30816	-0.01294782
0.30824	-0.01357813
0.30832	-0.01379912
0.3084	-0.01342263
0.30848	-0.01240378
0.30856	-0.0114646
0.30864	-0.01095757
0.30872	-0.01057448
0.3088	-0.009627256
0.30888	-0.008480146
0.30896	-0.007960612
0.30904	-0.007663194
0.30912	-0.00757091
0.3092	-0.007097418
0.30928	-0.007289914
0.30936	-0.006572283
0.30944	-0.00627805
0.30952	-0.006568991
0.3096	-0.006510299
0.30968	-0.00662842
0.30976	-0.007087304
0.30984	-0.00633524
0.30992	-0.005233107
0.31	-0.004296193
0.31008	-0.003844251
0.31016	-0.004098072
0.31024	-0.004099261
0.31032	-0.003763547
0.3104	-0.003525624
0.31048	-0.00295128
0.31056	-0.001976843
0.31064	-0.001579309
0.31072	-0.001364399
0.3108	-0.0006140621
0.31088	0.0003511064
0.31096	0.001510725
0.31104	0.00204525
0.31112	0.002071614
0.3112	0.002422008
0.31128	0.00263811
0.31136	0.002827888
0.31144	0.00359442
0.31152	0.004874335
0.3116	0.005325957
0.31168	0.005912944
0.31176	0.006150822
0.31184	0.00674737
0.31192	0.008272407
0.312	0.009412156
0.31208	0.009886629
0.31216	0.01059755
0.31224	0.01116956
0.31232	0.01197987
0.3124	0.01279628
0.31248	0.01296818
0.31256	0.01273391
0.31264	0.01205518
0.31272	0.01093435
0.3128	0.01049011
0.31288	0.01027121
0.31296	0.01010513
0.31304	0.01012968
0.31312	0.01048456
0.3132	0.01084388
0.31328	0.0113384
0.31336	0.01116407
0.31344	0.01111075
0.31352	0.01112978
0.3136	0.01120879
0.31368	0.01166938
0.31376	0.01141841
0.31384	0.01153028
0.31392	0.01201505
0.314	0.01287732
0.31408	0.01310374
0.31416	0.01292426
0.31424	0.01239489
0.31432	0.01197108
0.3144	0.01140503
0.31448	0.01132556
0.31456	0.01118082
0.31464	0.01051001
0.31472	0.01069028
0.3148	0.01120728
0.31488	0.01197456
0.31496	0.01201424
0.31504	0.01184143
0.31512	0.01248018
0.3152	0.01321658
0.31528	0.01319467
0.31536	0.01337847
0.31544	0.013575
0.31552	0.01372959
0.3156	0.01356814
0.31568	0.01317079
0.31576	0.01287251
0.31584	0.01278232
0.31592	0.01256394
0.316	0.0123003
0.31608	0.01251186
0.31616	0.01212162
0.31624	0.01130851
0.31632	0.01106644
0.3164	0.01126045
0.31648	0.01188931
0.31656	0.01160673
0.31664	0.0111828
0.31672	0.01085005
0.3168	0.01121294
0.31688	0.01153877
0.31696	0.01162122
0.31704	0.01145997
0.31712	0.01124101
0.3172	0.01038919
0.31728	0.009839515
0.31736	0.00998353
0.31744	0.009881307
0.31752	0.01052317
0.3176	0.01113484
0.31768	0.0116232
0.31776	0.01247859
0.31784	0.01229351
0.31792	0.01156961
0.318	0.01070617
0.31808	0.01018289
0.31816	0.009875905
0.31824	0.009996535
0.31832	0.01002784
0.3184	0.009507389
0.31848	0.008772848
0.31856	0.008600551
0.31864	0.008370241
0.31872	0.008378018
0.3188	0.00867388
0.31888	0.008525292
0.31896	0.008431063
0.31904	0.008165509
0.31912	0.008318531
0.3192	0.008831544
0.31928	0.009720986
0.31936	0.01015803
0.31944	0.01017764
0.31952	0.01026014
0.3196	0.009649311
0.31968	0.008553942
0.31976	0.006842874
0.31984	0.004820571
0.31992	0.003700377
0.32	0.002611271
0.32008	0.001967124
0.32016	0.002074537
0.32024	0.001938763
0.32032	0.001397189
0.3204	0.001432729
0.32048	0.001111137
0.32056	0.0008173841
0.32064	0.0009431587
0.32072	0.0005895471
0.3208	0.0002594889
0.32088	-0.0001023701
0.32096	-0.0002337376
0.32104	-0.001003874
0.32112	-0.001760954
0.3212	-0.002324278
0.32128	-0.003019421
0.32136	-0.003998822
0.32144	-0.004063522
0.32152	-0.003148088
0.3216	-0.002659748
0.32168	-0.003218365
0.32176	-0.003650879
0.32184	-0.003241578
0.32192	-0.003186669
0.322	-0.0035494
0.32208	-0.004236933
0.32216	-0.005094403
0.32224	-0.005628088
0.32232	-0.005281902
0.3224	-0.005345284
0.32248	-0.005385223
0.32256	-0.005463314
0.32264	-0.005389351
0.32272	-0.005510302
0.3228	-0.006009525
0.32288	-0.006358278
0.32296	-0.007377665
0.32304	-0.008477844
0.32312	-0.009164543
0.3232	-0.009074795
0.32328	-0.009833535
0.32336	-0.01021997
0.32344	-0.009818804
0.32352	-0.00938221
0.3236	-0.008798582
0.32368	-0.008338727
0.32376	-0.007989578
0.32384	-0.00817695
0.32392	-0.008181216
0.324	-0.008182351
0.32408	-0.008328226
0.32416	-0.008678386
0.32424	-0.009123099
0.32432	-0.009474399
0.3244	-0.009890288
0.32448	-0.009957296
0.32456	-0.009921367
0.32464	-0.01040505
0.32472	-0.01097504
0.3248	-0.01093683
0.32488	-0.01089682
0.32496	-0.01084096
0.32504	-0.0111943
0.32512	-0.01200513
0.3252	-0.01202597
0.32528	-0.01212628
0.32536	-0.01276048
0.32544	-0.01266042
0.32552	-0.01181046
0.3256	-0.01123773
0.32568	-0.01075871
0.32576	-0.01071048
0.32584	-0.01143218
0.32592	-0.01342143
0.326	-0.01477534
0.32608	-0.01527219
0.32616	-0.01543747
0.32624	-0.01517537
0.32632	-0.01499397
0.3264	-0.01454582
0.32648	-0.0138235
0.32656	-0.01289054
0.32664	-0.01301762
0.32672	-0.01281196
0.3268	-0.01187802
0.32688	-0.01086527
0.32696	-0.01046181
0.32704	-0.01091356
0.32712	-0.0110324
0.3272	-0.01094755
0.32728	-0.01095399
0.32736	-0.01039256
0.32744	-0.009968349
0.32752	-0.00988347
0.3276	-0.009551631
0.32768	-0.009031158
0.32776	-0.008220233
0.32784	-0.007713939
0.32792	-0.007771357
0.328	-0.00745427
0.32808	-0.006999586
0.32816	-0.007289856
0.32824	-0.007382334
0.32832	-0.00696605
0.3284	-0.006957738
0.32848	-0.006488923
0.32856	-0.00613082
0.32864	-0.005624759
0.32872	-0.004759017
0.3288	-0.004583456
0.32888	-0.003820383
0.32896	-0.003730242
0.32904	-0.003895398
0.32912	-0.004253354
0.3292	-0.004578199
0.32928	-0.003917223
0.32936	-0.003025773
0.32944	-0.003057116
0.32952	-0.003097545
0.3296	-0.002557367
0.32968	-0.001946561
0.32976	-0.0009934177
0.32984	0.0002484133
0.32992	0.001641238
0.33	0.003246923
0.33008	0.004476655
0.33016	0.004482672
0.33024	0.004328532
0.33032	0.00427041
0.3304	0.005138498
0.33048	0.006768274
0.33056	0.007868666
0.33064	0.00807952
0.33072	0.007944223
0.3308	0.007019604
0.33088	0.005425968
0.33096	0.004251086
0.33104	0.003054272
0.33112	0.002892432
0.3312	0.003353457
0.33128	0.004019366
0.33136	0.00406147
0.33144	0.004066268
0.33152	0.004309456
0.3316	0.004155175
0.33168	0.004295121
0.33176	0.004378418
0.33184	0.004472616
0.33192	0.005111719
0.332	0.00559823
0.33208	0.005876852
0.33216	0.006118502
0.33224	0.006028595
0.33232	0.005978152
0.3324	0.006397721
0.33248	0.006333984
0.33256	0.00653937
0.33264	0.006118523
0.33272	0.006954667
0.3328	0.008330471
0.33288	0.008712389
0.33296	0.008842263
0.33304	0.009126985
0.33312	0.01062301
0.3332	0.01190329
0.33328	0.01277606
0.33336	0.01363065
0.33344	0.01387364
0.33352	0.01334852
0.3336	0.01233444
0.33368	0.01237199
0.33376	0.0123968
0.33384	0.01138094
0.33392	0.01008718
0.334	0.009400441
0.33408	0.009820347
0.33416	0.009984817
0.33424	0.01016557
0.33432	0.01061703
0.3344	0.01124918
0.33448	0.0118189
0.33456	0.01247485
0.33464	0.01260484
0.33472	0.01233576
0.3348	0.01206393
0.33488	0.01180143
0.33496	0.01118808
0.33504	0.01041062
0.33512	0.01017957
0.3352	0.01082849
0.33528	0.0111913
0.33536	0.01108228
0.33544	0.01052445
0.33552	0.01020384
0.3356	0.01023878
0.33568	0.01083034
0.33576	0.01089974
0.33584	0.01010998
0.33592	0.009744408
0.336	0.0100124
0.33608	0.01090681
0.33616	0.01163687
0.33624	0.0127843
0.33632	0.01323801
0.3364	0.01349656
0.33648	0.01370227
0.33656	0.01320923
0.33664	0.01259639
0.33672	0.01196269
0.3368	0.01178096
0.33688	0.01160776
0.33696	0.01032661
0.33704	0.009456059
0.33712	0.008949962
0.3372	0.008293446
0.33728	0.007957252
0.33736	0.007290006
0.33744	0.006741264
0.33752	0.006477195
0.3376	0.006521533
0.33768	0.006149071
0.33776	0.005520821
0.33784	0.005204479
0.33792	0.005234852
0.338	0.005329898
0.33808	0.005202303
0.33816	0.005683377
0.33824	0.006271621
0.33832	0.006608206
0.3384	0.00648615
0.33848	0.005985553
0.33856	0.005993243
0.33864	0.006146498
0.33872	0.006251324
0.3388	0.005685616
0.33888	0.004839383
0.33896	0.004130025
0.33904	0.00406056
0.33912	0.004200339
0.3392	0.003568853
0.33928	0.002226264
0.33936	0.001738519
0.33944	0.001135848
0.33952	0.0006572146
0.3396	0.0005846098
0.33968	0.0004443183
0.33976	0.0004377064
0.33984	-0.0005220397
0.33992	-0.001549798
0.34	-0.002487207
0.34008	-0.003275933
0.34016	-0.00361282
0.34024	-0.004590235
0.34032	-0.004442279
0.3404	-0.003796366
0.34048	-0.00373446
0.34056	-0.003985009
0.34064	-0.00447882
0.34072	-0.005039199
0.3408	-0.00587926
0.34088	-0.006726403
0.34096	-0.006981027
0.34104	-0.007398891
0.34112	-0.008476411
0.3412	-0.009509596
0.34128	-0.009967744
0.34136	-0.01010662
0.34144	-0.01089683
0.34152	-0.01099168
0.3416	-0.01141484
0.34168	-0.012297
0.34176	-0.01314023
0.34184	-0.01419381
0.34192	-0.01465569
0.342	-0.01508468
0.34208	-0.01553987
0.34216	-0.01585252
0.34224	-0.01661235
0.34232	-0.01726351
0.3424	-0.01814857
0.34248	-0.01899537
0.34256	-0.01961346
0.34264	-0.01956938
0.34272	-0.01965615
0.3428	-0.019643
0.34288	-0.01968977
0.34296	-0.01968888
0.34304	-0.01993435
0.34312	-0.02024429
0.3432	-0.0203769
0.34328	-0.01978503
0.34336	-0.01943709
0.34344	-0.01884679
0.34352	-0.01803693
0.3436	-0.018177
0.34368	-0.01858417
0.34376	-0.0186863
0.34384	-0.0186962
0.34392	-0.01875322
0.344	-0.01895944
0.34408	-0.0193768
0.34416	-0.01884449
0.34424	-0.01795849
0.34432	-0.01747857
0.3444	-0.01723807
0.34448	-0.01789786
0.34456	-0.01872987
0.34464	-0.01863893
0.34472	-0.01813883
0.3448	-0.01738202
0.34488	-0.01720785
0.34496	-0.01727212
0.34504	-0.01702239
0.34512	-0.01658411
0.3452	-0.01622482
0.34528	-0.01638314
0.34536	-0.01623495
0.34544	-0.01551332
0.34552	-0.01460007
0.3456	-0.01382863
0.34568	-0.01361609
0.34576	-0.01340497
0.34584	-0.0127469
0.34592	-0.01262617
0.346	-0.01294383
0.34608	-0.01314401
0.34616	-0.01279139
0.34624	-0.01207786
0.34632	-0.01206415
0.3464	-0.01226733
0.34648	-0.01250189
0.34656	-0.01258529
0.34664	-0.01242503
0.34672	-0.01267953
0.3468	-0.01297726
0.34688	-0.01306522
0.34696	-0.01293919
0.34704	-0.01342544
0.34712	-0.01435953
0.3472	-0.01451541
0.34728	-0.0148142
0.34736	-0.01511191
0.34744	-0.01469204
0.34752	-0.0144278
0.3476	-0.01412681
0.34768	-0.01391923
0.34776	-0.01342005
0.34784	-0.01303957
0.34792	-0.01191547
0.348	-0.01170111
0.34808	-0.01187642
0.34816	-0.01117256
0.34824	-0.01031319
0.34832	-0.009326967
0.3484	-0.008293802
0.34848	-0.006977983
0.34856	-0.006171422
0.34864	-0.004660669
0.34872	-0.0033391
0.3488	-0.002636109
0.34888	-0.002347183
0.34896	-0.002129251
0.34904	-0.001802027
0.34912	-0.001664318
0.3492	-0.001123035
0.34928	-0.0008851868
0.34936	-0.000465248
0.34944	9.982209e-5
0.34952	0.0004698423
0.3496	0.0006491468
0.34968	0.001269997
0.34976	0.001528663
0.34984	0.001513565
0.34992	0.001469291
0.35	0.000554908
0.35008	0.0004036009
0.35016	0.00105591
0.35024	0.002092366
0.35032	0.002620035
0.3504	0.00320758
0.35048	0.003550033
0.35056	0.003447231
0.35064	0.003250753
0.35072	0.003494428
0.3508	0.003781815
0.35088	0.003822393
0.35096	0.004029822
0.35104	0.004368252
0.35112	0.005245654
0.3512	0.004790016
0.35128	0.004613257
0.35136	0.006110804
0.35144	0.006682805
0.35152	0.006517535
0.3516	0.006876848
0.35168	0.007164831
0.35176	0.007489462
0.35184	0.00807297
0.35192	0.008718225
0.352	0.008918169
0.35208	0.009010606
0.35216	0.008534549
0.35224	0.008750756
0.35232	0.009964492
0.3524	0.01093299
0.35248	0.01183948
0.35256	0.0122222
0.35264	0.01250534
0.35272	0.01268889
0.3528	0.01238482
0.35288	0.01297527
0.35296	0.01299109
0.35304	0.01332259
0.35312	0.01377441
0.3532	0.0145666
0.35328	0.01492129
0.35336	0.01433173
0.35344	0.01437771
0.35352	0.01428202
0.3536	0.0141386
0.35368	0.01409788
0.35376	0.01433686
0.35384	0.01387787
0.35392	0.013613
0.354	0.01365656
0.35408	0.01394224
0.35416	0.01443243
0.35424	0.01488636
0.35432	0.01522389
0.3544	0.01543586
0.35448	0.01549496
0.35456	0.01509891
0.35464	0.01473019
0.35472	0.01432524
0.3548	0.01426806
0.35488	0.0139012
0.35496	0.01362757
0.35504	0.01391197
0.35512	0.0140632
0.3552	0.01404158
0.35528	0.01438986
0.35536	0.01500264
0.35544	0.01521322
0.35552	0.01522062
0.3556	0.01536395
0.35568	0.01541484
0.35576	0.01625742
0.35584	0.01689405
0.35592	0.01748667
0.356	0.01744708
0.35608	0.01713707
0.35616	0.01638084
0.35624	0.01581564
0.35632	0.01496477
0.3564	0.01453014
0.35648	0.01432207
0.35656	0.01441464
0.35664	0.01378029
0.35672	0.01303869
0.3568	0.01300807
0.35688	0.01344433
0.35696	0.01335567
0.35704	0.0136008
0.35712	0.0140465
0.3572	0.01380108
0.35728	0.01419077
0.35736	0.01445216
0.35744	0.01446134
0.35752	0.01405062
0.3576	0.01388653
0.35768	0.01402552
0.35776	0.0139206
0.35784	0.01314314
0.35792	0.01203008
0.358	0.01096966
0.35808	0.01066792
0.35816	0.01030178
0.35824	0.01042315
0.35832	0.01027806
0.3584	0.009333191
0.35848	0.008257829
0.35856	0.007899257
0.35864	0.007532695
0.35872	0.007216031
0.3588	0.006977611
0.35888	0.006940635
0.35896	0.007181301
0.35904	0.006681123
0.35912	0.00636735
0.3592	0.006480264
0.35928	0.005711431
0.35936	0.004862884
0.35944	0.005079601
0.35952	0.005355016
0.3596	0.005392032
0.35968	0.004132472
0.35976	0.002870713
0.35984	0.001604174
0.35992	0.0005663966
0.36	0.000914109
0.36008	0.001276351
0.36016	0.00126987
0.36024	0.00117177
0.36032	0.001338043
0.3604	0.001770206
0.36048	0.002168006
0.36056	0.001966798
0.36064	0.001876733
0.36072	0.002212125
0.3608	0.002654046
0.36088	0.002557969
0.36096	0.002052213
0.36104	0.0009107695
0.36112	-0.0004719571
0.3612	-0.001678399
0.36128	-0.002561777
0.36136	-0.003479201
0.36144	-0.004299915
0.36152	-0.005191718
0.3616	-0.0059618
0.36168	-0.00612481
0.36176	-0.006880857
0.36184	-0.008105366
0.36192	-0.008193413
0.362	-0.008639901
0.36208	-0.01003131
0.36216	-0.01158782
0.36224	-0.01248313
0.36232	-0.01313344
0.3624	-0.01342683
0.36248	-0.01324005
0.36256	-0.01362076
0.36264	-0.0136498
0.36272	-0.0137811
0.3628	-0.01347303
0.36288	-0.01313496
0.36296	-0.01353018
0.36304	-0.01373127
0.36312	-0.01358063
0.3632	-0.0132627
0.36328	-0.0134483
0.36336	-0.01399563
0.36344	-0.01349797
0.36352	-0.0130551
0.3636	-0.01235352
0.36368	-0.01151071
0.36376	-0.01146289
0.36384	-0.01167117
0.36392	-0.01187773
0.364	-0.01249573
0.36408	-0.01306444
0.36416	-0.01352455
0.36424	-0.01374911
0.36432	-0.01367489
0.3644	-0.01407141
0.36448	-0.01459428
0.36456	-0.01422791
0.36464	-0.01408708
0.36472	-0.01415577
0.3648	-0.01362721
0.36488	-0.01299093
0.36496	-0.01242984
0.36504	-0.0115912
0.36512	-0.01193152
0.3652	-0.01242211
0.36528	-0.0124244
0.36536	-0.01247803
0.36544	-0.01163445
0.36552	-0.01133271
0.3656	-0.01140949
0.36568	-0.01180484
0.36576	-0.01210092
0.36584	-0.01243943
0.36592	-0.01237356
0.366	-0.0120575
0.36608	-0.0115399
0.36616	-0.01157361
0.36624	-0.012305
0.36632	-0.0123312
0.3664	-0.01263762
0.36648	-0.01334403
0.36656	-0.0140262
0.36664	-0.01406726
0.36672	-0.01397019
0.3668	-0.01397797
0.36688	-0.01420801
0.36696	-0.01381116
0.36704	-0.01304636
0.36712	-0.01345773
0.3672	-0.01383587
0.36728	-0.01370806
0.36736	-0.01316089
0.36744	-0.01268187
0.36752	-0.01220324
0.3676	-0.01140502
0.36768	-0.01098027
0.36776	-0.01017692
0.36784	-0.009591987
0.36792	-0.008980815
0.368	-0.008922469
0.36808	-0.008973474
0.36816	-0.009076145
0.36824	-0.00905374
0.36832	-0.008964119
0.3684	-0.009252816
0.36848	-0.009207107
0.36856	-0.008504218
0.36864	-0.008071373
0.36872	-0.007490125
0.3688	-0.007070081
0.36888	-0.007330665
0.36896	-0.007885044
0.36904	-0.008552072
0.36912	-0.008579219
0.3692	-0.00803609
0.36928	-0.007831516
0.36936	-0.007152976
0.36944	-0.006372406
0.36952	-0.005606062
0.3696	-0.005905806
0.36968	-0.006368699
0.36976	-0.00641729
0.36984	-0.006135589
0.36992	-0.006188908
0.37	-0.006543816
0.37008	-0.006275628
0.37016	-0.004787907
0.37024	-0.004035493
0.37032	-0.003484113
0.3704	-0.002989087
0.37048	-0.002647144
0.37056	-0.002533041
0.37064	-0.001838309
0.37072	-0.001143941
0.3708	-0.000605643
0.37088	0.0005591279
0.37096	0.001559553
0.37104	0.001664397
0.37112	0.001985822
0.3712	0.002446655
0.37128	0.002449397
0.37136	0.002932485
0.37144	0.003148236
0.37152	0.003299202
0.3716	0.003727226
0.37168	0.004196537
0.37176	0.005075055
0.37184	0.005479128
0.37192	0.005944512
0.372	0.006573679
0.37208	0.006659458
0.37216	0.006994647
0.37224	0.007820359
0.37232	0.008204072
0.3724	0.007938581
0.37248	0.007241045
0.37256	0.006856942
0.37264	0.007562227
0.37272	0.008721445
0.3728	0.008857313
0.37288	0.009026271
0.37296	0.009323151
0.37304	0.009054909
0.37312	0.008824704
0.3732	0.008839673
0.37328	0.009237337
0.37336	0.01020148
0.37344	0.01090599
0.37352	0.01100377
0.3736	0.01111747
0.37368	0.01114623
0.37376	0.0114048
0.37384	0.01152303
0.37392	0.01178417
0.374	0.01199063
0.37408	0.01259078
0.37416	0.01254738
0.37424	0.0118986
0.37432	0.01179183
0.3744	0.01154294
0.37448	0.01204952
0.37456	0.0128902
0.37464	0.01336055
0.37472	0.01420919
0.3748	0.01465232
0.37488	0.01494418
0.37496	0.01441427
0.37504	0.01352438
0.37512	0.01354338
0.3752	0.01298988
0.37528	0.01317027
0.37536	0.01283019
0.37544	0.01235042
0.37552	0.01233594
0.3756	0.01242131
0.37568	0.01196182
0.37576	0.01143701
0.37584	0.01117463
0.37592	0.01073438
0.376	0.0109303
0.37608	0.01126909
0.37616	0.01149793
0.37624	0.01168352
0.37632	0.01174791
0.3764	0.0115639
0.37648	0.01167602
0.37656	0.01149658
0.37664	0.011462
0.37672	0.0120525
0.3768	0.01223045
0.37688	0.01190328
0.37696	0.01125183
0.37704	0.01086994
0.37712	0.01153575
0.3772	0.01246488
0.37728	0.01269989
0.37736	0.01244732
0.37744	0.01255019
0.37752	0.01213327
0.3776	0.01147368
0.37768	0.01057994
0.37776	0.009790459
0.37784	0.009094581
0.37792	0.00756578
0.378	0.006546566
0.37808	0.006238832
0.37816	0.005989768
0.37824	0.004879133
0.37832	0.003847678
0.3784	0.002767792
0.37848	0.002447221
0.37856	0.002421813
0.37864	0.002495363
0.37872	0.002775506
0.3788	0.002599201
0.37888	0.002108864
0.37896	0.001379098
0.37904	0.001432992
0.37912	0.001577407
0.3792	0.00190238
0.37928	0.001910706
0.37936	0.001614895
0.37944	0.0007057909
0.37952	-0.0004923904
0.3796	-0.000934108
0.37968	-0.001302895
0.37976	-0.001830009
0.37984	-0.002705871
0.37992	-0.002976435
0.38	-0.002804387
0.38008	-0.002286925
0.38016	-0.002036347
0.38024	-0.001921954
0.38032	-0.001790336
0.3804	-0.001945021
0.38048	-0.00226172
0.38056	-0.00230292
0.38064	-0.00274344
0.38072	-0.003451213
0.3808	-0.003713736
0.38088	-0.003962585
0.38096	-0.004325537
0.38104	-0.004386059
0.38112	-0.00500524
0.3812	-0.005829628
0.38128	-0.005975574
0.38136	-0.005705588
0.38144	-0.005333094
0.38152	-0.004995627
0.3816	-0.004996918
0.38168	-0.005199059
0.38176	-0.004954726
0.38184	-0.004858033
0.38192	-0.004789639
0.382	-0.004636203
0.38208	-0.004918011
0.38216	-0.005256919
0.38224	-0.00627403
0.38232	-0.00664222
0.3824	-0.007550239
0.38248	-0.008548296
0.38256	-0.009113937
0.38264	-0.009905284
0.38272	-0.01095069
0.3828	-0.01199693
0.38288	-0.01256008
0.38296	-0.013214
0.38304	-0.01347703
0.38312	-0.01382538
0.3832	-0.01424477
0.38328	-0.01536797
0.38336	-0.01588987
0.38344	-0.01580725
0.38352	-0.01564918
0.3836	-0.01592537
0.38368	-0.0158376
0.38376	-0.01636172
0.38384	-0.01669837
0.38392	-0.016112
0.384	-0.01597407
0.38408	-0.01557979
0.38416	-0.01481635
0.38424	-0.01402631
0.38432	-0.0136967
0.3844	-0.01347057
0.38448	-0.01352502
0.38456	-0.01372094
0.38464	-0.01355074
0.38472	-0.01362619
0.3848	-0.01359648
0.38488	-0.01397106
0.38496	-0.01495248
0.38504	-0.01557967
0.38512	-0.01592671
0.3852	-0.01599677
0.38528	-0.01557733
0.38536	-0.01598718
0.38544	-0.01669396
0.38552	-0.01737672
0.3856	-0.01743706
0.38568	-0.01724171
0.38576	-0.01722958
0.38584	-0.01737342
0.38592	-0.01724805
0.386	-0.01717101
0.38608	-0.01696241
0.38616	-0.01678221
0.38624	-0.0163723
0.38632	-0.0157241
0.3864	-0.01500219
0.38648	-0.01379056
0.38656	-0.01312429
0.38664	-0.01275484
0.38672	-0.01274271
0.3868	-0.0127009
0.38688	-0.01297091
0.38696	-0.01234262
0.38704	-0.01196728
0.38712	-0.01110626
0.3872	-0.009976922
0.38728	-0.009435704
0.38736	-0.009245648
0.38744	-0.008247175
0.38752	-0.006687147
0.3876	-0.006492853
0.38768	-0.00682098
0.38776	-0.006875249
0.38784	-0.006334207
0.38792	-0.005588128
0.388	-0.005077431
0.38808	-0.004749076
0.38816	-0.004984301
0.38824	-0.004734824
0.38832	-0.004689169
0.3884	-0.004405511
0.38848	-0.004282129
0.38856	-0.0043485
0.38864	-0.004150952
0.38872	-0.003346047
0.3888	-0.002758469
0.38888	-0.00268673
0.38896	-0.002822941
0.38904	-0.002884423
0.38912	-0.002513029
0.3892	-0.002771339
0.38928	-0.002776808
0.38936	-0.002918395
0.38944	-0.00293813
0.38952	-0.002704531
0.3896	-0.002780321
0.38968	-0.003101944
0.38976	-0.003782565
0.38984	-0.003869047
0.38992	-0.003331727
0.39	-0.002452594
0.39008	-0.001227709
0.39016	8.046173e-6
0.39024	0.001504721
0.39032	0.002844057
0.3904	0.004423056
0.39048	0.006136712
0.39056	0.00743876
0.39064	0.008895612
0.39072	0.01023517
0.3908	0.01113304
0.39088	0.01194231
0.39096	0.01296986
0.39104	0.01421416
0.39112	0.01475533
0.3912	0.01470711
0.39128	0.01475888
0.39136	0.01428442
0.39144	0.01391736
0.39152	0.01390858
0.3916	0.0143317
0.39168	0.01484731
0.39176	0.0150661
0.39184	0.01471306
0.39192	0.01423664
0.392	0.01453389
0.39208	0.01576049
0.39216	0.01696737
0.39224	0.01728554
0.39232	0.0176443
0.3924	0.01725212
0.39248	0.01697227
0.39256	0.01632263
0.39264	0.01557736
0.39272	0.0145698
0.3928	0.01316474
0.39288	0.01230791
0.39296	0.01153458
0.39304	0.01183164
0.39312	0.01242482
0.3932	0.01270393
0.39328	0.01335747
0.39336	0.01501573
0.39344	0.01580152
0.39352	0.0158038
0.3936	0.01615526
0.39368	0.01629775
0.39376	0.01636456
0.39384	0.0161103
0.39392	0.0158201
0.394	0.0153987
0.39408	0.01466661
0.39416	0.01434741
0.39424	0.01501884
0.39432	0.01568759
0.3944	0.01564678
0.39448	0.01634585
0.39456	0.01676435
0.39464	0.01690223
0.39472	0.01655953
0.3948	0.01569374
0.39488	0.01519117
0.39496	0.01552269
0.39504	0.01576715
0.39512	0.01593271
0.3952	0.01637525
0.39528	0.01608524
0.39536	0.01569547
0.39544	0.01531317
0.39552	0.01522696
0.3956	0.01549782
0.39568	0.01584138
0.39576	0.01617007
0.39584	0.01650642
0.39592	0.01662896
0.396	0.01707907
0.39608	0.01696036
0.39616	0.01629594
0.39624	0.0164762
0.39632	0.01594685
0.3964	0.01595114
0.39648	0.01628924
0.39656	0.01575093
0.39664	0.01521779
0.39672	0.0148514
0.3968	0.01423555
0.39688	0.01450221
0.39696	0.01437602
0.39704	0.01418016
0.39712	0.013793
0.3972	0.01311486
0.39728	0.01258149
0.39736	0.01168201
0.39744	0.0108593
0.39752	0.0105381
0.3976	0.01010565
0.39768	0.01064376
0.39776	0.01064701
0.39784	0.01052433
0.39792	0.01037594
0.398	0.00994156
0.39808	0.01015608
0.39816	0.01067829
0.39824	0.01012441
0.39832	0.009149853
0.3984	0.008847112
0.39848	0.008970518
0.39856	0.008084279
0.39864	0.007000602
0.39872	0.007201548
0.3988	0.007189205
0.39888	0.007548844
0.39896	0.007810772
0.39904	0.007283023
0.39912	0.00633487
0.3992	0.005107196
0.39928	0.004568296
0.39936	0.00431456
0.39944	0.004089681
0.39952	0.003364555
0.3996	0.00307711
0.39968	0.00305516
0.39976	0.002761584
0.39984	0.0027495
0.39992	0.003108226
0.4	0.002717122
0.40008	0.001573258
0.40016	0.0006538085
0.40024	-9.496021e-5
0.40032	-0.00105856
0.4004	-0.001896064
0.40048	-0.002991574
0.40056	-0.003320895
0.40064	-0.003146047
0.40072	-0.002738349
0.4008	-0.002461698
0.40088	-0.002750353
0.40096	-0.003647294
0.40104	-0.00508919
0.40112	-0.005545372
0.4012	-0.005211461
0.40128	-0.005032631
0.40136	-0.005034027
0.40144	-0.005584043
0.40152	-0.006173934
0.4016	-0.006512756
0.40168	-0.006596953
0.40176	-0.006802507
0.40184	-0.007153613
0.40192	-0.007607015
0.402	-0.00812503
0.40208	-0.00819965
0.40216	-0.007905198
0.40224	-0.007538764
0.40232	-0.00774388
0.4024	-0.007889522
0.40248	-0.007909643
0.40256	-0.00817413
0.40264	-0.008249789
0.40272	-0.00902283
0.4028	-0.009238023
0.40288	-0.008590294
0.40296	-0.008498255
0.40304	-0.009650067
0.40312	-0.01056618
0.4032	-0.01074927
0.40328	-0.01077652
0.40336	-0.01030373
0.40344	-0.01056368
0.40352	-0.01091267
0.4036	-0.01131098
0.40368	-0.0119502
0.40376	-0.01280253
0.40384	-0.01315354
0.40392	-0.01408259
0.404	-0.0150456
0.40408	-0.01569459
0.40416	-0.01640121
0.40424	-0.01687321
0.40432	-0.01723449
0.4044	-0.01836166
0.40448	-0.01902555
0.40456	-0.01893247
0.40464	-0.01883702
0.40472	-0.01838581
0.4048	-0.01794815
0.40488	-0.01764645
0.40496	-0.0174187
0.40504	-0.01715496
0.40512	-0.0170729
0.4052	-0.01715359
0.40528	-0.01678675
0.40536	-0.01691158
0.40544	-0.01686741
0.40552	-0.01630001
0.4056	-0.01569408
0.40568	-0.01571007
0.40576	-0.01573599
0.40584	-0.01520359
0.40592	-0.01497059
0.406	-0.01469745
0.40608	-0.01438045
0.40616	-0.01373297
0.40624	-0.01356012
0.40632	-0.01433284
0.4064	-0.0153009
0.40648	-0.0157001
0.40656	-0.01542474
0.40664	-0.01488615
0.40672	-0.01470808
0.4068	-0.0145344
0.40688	-0.01396289
0.40696	-0.01321103
0.40704	-0.01283812
0.40712	-0.01358623
0.4072	-0.01403328
0.40728	-0.01343239
0.40736	-0.01291053
0.40744	-0.01275948
0.40752	-0.01258597
0.4076	-0.01153236
0.40768	-0.01026928
0.40776	-0.009221905
0.40784	-0.008369877
0.40792	-0.008133561
0.408	-0.00873743
0.40808	-0.009804439
0.40816	-0.01013834
0.40824	-0.01005709
0.40832	-0.009689375
0.4084	-0.009747029
0.40848	-0.009730017
0.40856	-0.009346298
0.40864	-0.009014065
0.40872	-0.008506345
0.4088	-0.008096969
0.40888	-0.007899022
0.40896	-0.007155218
0.40904	-0.006930248
0.40912	-0.006507299
0.4092	-0.00583767
0.40928	-0.004732071
0.40936	-0.004227796
0.40944	-0.003968198
0.40952	-0.003418395
0.4096	-0.002912182
0.40968	-0.002710363
0.40976	-0.003121953
0.40984	-0.003905933
0.40992	-0.004390461
0.41	-0.003668674
0.41008	-0.002101781
0.41016	-0.0003778777
0.41024	0.0006282795
0.41032	0.001558556
0.4104	0.002415777
0.41048	0.003221292
0.41056	0.003978916
0.41064	0.004580942
0.41072	0.004824137
0.4108	0.004450075
0.41088	0.004153644
0.41096	0.004134611
0.41104	0.004261017
0.41112	0.004815303
0.4112	0.005001834
0.41128	0.005524516
0.41136	0.006056982
0.41144	0.006448978
0.41152	0.006850218
0.4116	0.007292051
0.41168	0.007564193
0.41176	0.007973217
0.41184	0.008543512
0.41192	0.008836241
0.412	0.009154385
0.41208	0.009094417
0.41216	0.00898414
0.41224	0.00898254
0.41232	0.008722323
0.4124	0.008286064
0.41248	0.008428642
0.41256	0.008192874
0.41264	0.008736232
0.41272	0.009002674
0.4128	0.008836955
0.41288	0.008789925
0.41296	0.008825742
0.41304	0.009829864
0.41312	0.01037583
0.4132	0.01117595
0.41328	0.01163922
0.41336	0.01082934
0.41344	0.01008839
0.41352	0.01017016
0.4136	0.01047684
0.41368	0.009891437
0.41376	0.009970608
0.41384	0.009725004
0.41392	0.009766858
0.414	0.00992246
0.41408	0.01044041
0.41416	0.01103524
0.41424	0.01170897
0.41432	0.01265468
0.4144	0.01286066
0.41448	0.01299563
0.41456	0.01317174
0.41464	0.01339183
0.41472	0.01335152
0.4148	0.01323576
0.41488	0.01368968
0.41496	0.01392002
0.41504	0.01385298
0.41512	0.01376981
0.4152	0.01394472
0.41528	0.01397546
0.41536	0.01460611
0.41544	0.01450595
0.41552	0.01400395
0.4156	0.01416984
0.41568	0.01409792
0.41576	0.01361552
0.41584	0.01274775
0.41592	0.01182593
0.416	0.01141649
0.41608	0.0110502
0.41616	0.01027929
0.41624	0.009813407
0.41632	0.01020146
0.4164	0.01023153
0.41648	0.01008751
0.41656	0.009817646
0.41664	0.009641131
0.41672	0.01033954
0.4168	0.01112435
0.41688	0.01177789
0.41696	0.01243918
0.41704	0.01266705
0.41712	0.01328627
0.4172	0.01434759
0.41728	0.01469597
0.41736	0.01381395
0.41744	0.01366217
0.41752	0.01372264
0.4176	0.01386614
0.41768	0.01381475
0.41776	0.01313766
0.41784	0.01248829
0.41792	0.01205401
0.418	0.01179291
0.41808	0.01149052
0.41816	0.01106445
0.41824	0.01061817
0.41832	0.01017862
0.4184	0.00960957
0.41848	0.009133712
0.41856	0.008995255
0.41864	0.008385793
0.41872	0.007607453
0.4188	0.007198192
0.41888	0.006265022
0.41896	0.005488138
0.41904	0.004824479
0.41912	0.004128165
0.4192	0.00350532
0.41928	0.002882498
0.41936	0.002536523
0.41944	0.001911261
0.41952	0.0009512933
0.4196	-0.0001768686
0.41968	-0.00105727
0.41976	-0.001864672
0.41984	-0.001785012
0.41992	-0.001277591
0.42	-0.001007904
0.42008	-0.0005795562
0.42016	-0.0004378466
0.42024	-0.0009286586
0.42032	-0.001769507
0.4204	-0.002242018
0.42048	-0.002821583
0.42056	-0.003086399
0.42064	-0.003650852
0.42072	-0.004765216
0.4208	-0.005557756
0.42088	-0.005948614
0.42096	-0.00625483
0.42104	-0.007062193
0.42112	-0.007965148
0.4212	-0.008337072
0.42128	-0.00822901
0.42136	-0.009123142
0.42144	-0.009990515
0.42152	-0.0107159
0.4216	-0.01070792
0.42168	-0.01028707
0.42176	-0.01034888
0.42184	-0.01054664
0.42192	-0.01060953
0.422	-0.01073361
0.42208	-0.01092758
0.42216	-0.01111568
0.42224	-0.01164208
0.42232	-0.01258346
0.4224	-0.01292352
0.42248	-0.0130229
0.42256	-0.01280461
0.42264	-0.01303367
0.42272	-0.0131267
0.4228	-0.01288335
0.42288	-0.01283512
0.42296	-0.01282125
0.42304	-0.01273944
0.42312	-0.01254899
0.4232	-0.01186306
0.42328	-0.01116146
0.42336	-0.01119864
0.42344	-0.01105263
0.42352	-0.01084549
0.4236	-0.01052186
0.42368	-0.01072809
0.42376	-0.01161899
0.42384	-0.01221941
0.42392	-0.01305378
0.424	-0.01337825
0.42408	-0.013424
0.42416	-0.01337158
0.42424	-0.0126384
0.42432	-0.01229842
0.4244	-0.01253104
0.42448	-0.01307754
0.42456	-0.01314785
0.42464	-0.01329513
0.42472	-0.01327765
0.4248	-0.01282372
0.42488	-0.01247149
0.42496	-0.0125284
0.42504	-0.01308753
0.42512	-0.0132978
0.4252	-0.01361939
0.42528	-0.01363392
0.42536	-0.01372821
0.42544	-0.01425505
0.42552	-0.0143504
0.4256	-0.01451582
0.42568	-0.01514912
0.42576	-0.01508241
0.42584	-0.01504708
0.42592	-0.01424758
0.426	-0.01335821
0.42608	-0.01310674
0.42616	-0.01227046
0.42624	-0.01220524
0.42632	-0.01232501
0.4264	-0.01199908
0.42648	-0.01142632
0.42656	-0.01072362
0.42664	-0.009613532
0.42672	-0.008724835
0.4268	-0.008845068
0.42688	-0.009369612
0.42696	-0.009588524
0.42704	-0.008504937
0.42712	-0.007890556
0.4272	-0.0071429
0.42728	-0.006351794
0.42736	-0.006024952
0.42744	-0.005255993
0.42752	-0.004958425
0.4276	-0.005437024
0.42768	-0.005978539
0.42776	-0.006428019
0.42784	-0.00660718
0.42792	-0.006594994
0.428	-0.006739549
0.42808	-0.007170124
0.42816	-0.007644949
0.42824	-0.006796354
0.42832	-0.006444632
0.4284	-0.006527952
0.42848	-0.005997762
0.42856	-0.005451761
0.42864	-0.004675984
0.42872	-0.003525435
0.4288	-0.002135965
0.42888	-0.001495684
0.42896	-0.001912443
0.42904	-0.002212978
0.42912	-0.002565278
0.4292	-0.002532646
0.42928	-0.002025869
0.42936	-0.001941587
0.42944	-0.001418315
0.42952	-0.0006948544
0.4296	-0.0002059932
0.42968	-0.0003245814
0.42976	0.0003728546
0.42984	0.001142021
0.42992	0.00169616
0.43	0.001742885
0.43008	0.001578222
0.43016	0.001248244
0.43024	0.001792929
0.43032	0.002270149
0.4304	0.003337903
0.43048	0.004416617
0.43056	0.005245852
0.43064	0.00612556
0.43072	0.006477728
0.4308	0.005759605
0.43088	0.004338288
0.43096	0.003669414
0.43104	0.002420159
0.43112	0.002203769
0.4312	0.003078371
0.43128	0.004414965
0.43136	0.005507433
0.43144	0.006365283
0.43152	0.00714173
0.4316	0.008233152
0.43168	0.008757537
0.43176	0.008922089
0.43184	0.009407981
0.43192	0.009596398
0.432	0.01009177
0.43208	0.01021907
0.43216	0.01014272
0.43224	0.01035718
0.43232	0.01032746
0.4324	0.01105044
0.43248	0.01175382
0.43256	0.01238959
0.43264	0.01352218
0.43272	0.01395091
0.4328	0.01409446
0.43288	0.01419595
0.43296	0.01393781
0.43304	0.01373168
0.43312	0.01385772
0.4332	0.01424961
0.43328	0.01509032
0.43336	0.01605402
0.43344	0.0165368
0.43352	0.01582675
0.4336	0.01535992
0.43368	0.01558094
0.43376	0.01500341
0.43384	0.01443578
0.43392	0.01444475
0.434	0.01498254
0.43408	0.01515375
0.43416	0.01532621
0.43424	0.01613599
0.43432	0.01750727
0.4344	0.01844355
0.43448	0.01883308
0.43456	0.01855653
0.43464	0.01861332
0.43472	0.01891229
0.4348	0.01855049
0.43488	0.01850485
0.43496	0.01838687
0.43504	0.01842295
0.43512	0.01798077
0.4352	0.01672083
0.43528	0.01589431
0.43536	0.01550032
0.43544	0.0151903
0.43552	0.01424184
0.4356	0.01372041
0.43568	0.01347159
0.43576	0.01358727
0.43584	0.01364629
0.43592	0.01396127
0.436	0.01457081
0.43608	0.01477078
0.43616	0.01503093
0.43624	0.01515045
0.43632	0.01540562
0.4364	0.01555509
0.43648	0.0157334
0.43656	0.01618405
0.43664	0.01661332
0.43672	0.01640634
0.4368	0.01660088
0.43688	0.01686601
0.43696	0.01639801
0.43704	0.01575433
0.43712	0.01544051
0.4372	0.01537327
0.43728	0.01525375
0.43736	0.01445631
0.43744	0.01405382
0.43752	0.0138685
0.4376	0.01339823
0.43768	0.01281408
0.43776	0.01159476
0.43784	0.01076175
0.43792	0.009883621
0.438	0.008503892
0.43808	0.008038718
0.43816	0.007507894
0.43824	0.007061555
0.43832	0.005617194
0.4384	0.004074409
0.43848	0.003134309
0.43856	0.002474242
0.43864	0.001965935
0.43872	0.001605215
0.4388	0.001345299
0.43888	0.001249281
0.43896	0.001300612
0.43904	0.001423952
0.43912	0.0009241815
0.4392	-0.0003201668
0.43928	-0.001036981
0.43936	-0.001528411
0.43944	-0.001810922
0.43952	-0.001858021
0.4396	-0.001907074
0.43968	-0.001610915
0.43976	-0.001573262
0.43984	-0.001882392
0.43992	-0.002761272
0.44	-0.003396787
0.44008	-0.003240515
0.44016	-0.003452775
0.44024	-0.002875985
0.44032	-0.002304856
0.4404	-0.00219465
0.44048	-0.002296441
0.44056	-0.001936205
0.44064	-0.001551546
0.44072	-0.001094605
0.4408	-0.001039078
0.44088	-0.001360733
0.44096	-0.001684074
0.44104	-0.002423935
0.44112	-0.003058801
0.4412	-0.004455631
0.44128	-0.005559607
0.44136	-0.006088182
0.44144	-0.006593958
0.44152	-0.007191221
0.4416	-0.007791052
0.44168	-0.008126244
0.44176	-0.009120399
0.44184	-0.01063314
0.44192	-0.01186924
0.442	-0.01145765
0.44208	-0.01123794
0.44216	-0.01163442
0.44224	-0.01205471
0.44232	-0.01186725
0.4424	-0.01179487
0.44248	-0.01186301
0.44256	-0.01184973
0.44264	-0.01265738
0.44272	-0.01299062
0.4428	-0.01248897
0.44288	-0.01207361
0.44296	-0.01211923
0.44304	-0.01249223
0.44312	-0.01340645
0.4432	-0.01396366
0.44328	-0.01473198
0.44336	-0.01569115
0.44344	-0.01575555
0.44352	-0.01549034
0.4436	-0.01546872
0.44368	-0.01573565
0.44376	-0.01571884
0.44384	-0.01590466
0.44392	-0.01590113
0.444	-0.01609643
0.44408	-0.01615069
0.44416	-0.01600298
0.44424	-0.01595875
0.44432	-0.01600468
0.4444	-0.01600293
0.44448	-0.01599114
0.44456	-0.01656059
0.44464	-0.0170236
0.44472	-0.01723246
0.4448	-0.01729575
0.44488	-0.01759866
0.44496	-0.01758918
0.44504	-0.01743425
0.44512	-0.01648005
0.4452	-0.01550081
0.44528	-0.01560344
0.44536	-0.01597793
0.44544	-0.01612106
0.44552	-0.0160349
0.4456	-0.01621003
0.44568	-0.01696071
0.44576	-0.01688196
0.44584	-0.01730678
0.44592	-0.01809469
0.446	-0.01863718
0.44608	-0.01876286
0.44616	-0.01897451
0.44624	-0.01913876
0.44632	-0.01920447
0.4464	-0.01908625
0.44648	-0.01789402
0.44656	-0.01666072
0.44664	-0.01589504
0.44672	-0.01571868
0.4468	-0.0157475
0.44688	-0.01529712
0.44696	-0.01435157
0.44704	-0.01322407
0.44712	-0.01249094
0.4472	-0.01194965
0.44728	-0.01102327
0.44736	-0.01037589
0.44744	-0.009240333
0.44752	-0.008339937
0.4476	-0.007053433
0.44768	-0.005735359
0.44776	-0.004979501
0.44784	-0.003802843
0.44792	-0.003210433
0.448	-0.002847681
0.44808	-0.002632226
0.44816	-0.002066711
0.44824	-0.001070662
0.44832	-0.0005203594
0.4484	-0.0003870338
0.44848	4.914762e-5
0.44856	-3.916692e-5
0.44864	-0.0005106117
0.44872	-0.000275354
0.4488	-0.0002050614
0.44888	0.0003671375
0.44896	0.0004647899
0.44904	0.0002151601
0.44912	7.745624e-5
0.4492	0.0005149615
0.44928	0.001264794
0.44936	0.001472658
0.44944	0.001906023
0.44952	0.002788465
0.4496	0.003074457
0.44968	0.002962396
0.44976	0.002824231
0.44984	0.003206598
0.44992	0.003758491
0.45	0.004524832
0.45008	0.005822456
0.45016	0.006548458
0.45024	0.006638219
0.45032	0.006880424
0.4504	0.007563515
0.45048	0.008054452
0.45056	0.008425311
0.45064	0.008193363
0.45072	0.008040141
0.4508	0.008145934
0.45088	0.008444669
0.45096	0.009400548
0.45104	0.01040761
0.45112	0.01153477
0.4512	0.01263703
0.45128	0.0132639
0.45136	0.01315699
0.45144	0.01340935
0.45152	0.01393903
0.4516	0.01444587
0.45168	0.01438594
0.45176	0.01435338
0.45184	0.01466422
0.45192	0.01494058
0.452	0.01494902
0.45208	0.01502967
0.45216	0.01549474
0.45224	0.01576924
0.45232	0.01579385
0.4524	0.01617436
0.45248	0.01712234
0.45256	0.01784055
0.45264	0.01842109
0.45272	0.01868302
0.4528	0.01923079
0.45288	0.01888909
0.45296	0.01820252
0.45304	0.01754796
0.45312	0.01702105
0.4532	0.0166203
0.45328	0.01626019
0.45336	0.01633888
0.45344	0.0154731
0.45352	0.01516184
0.4536	0.01439226
0.45368	0.01381386
0.45376	0.01351472
0.45384	0.0133279
0.45392	0.01295331
0.454	0.01275439
0.45408	0.01285242
0.45416	0.01275505
0.45424	0.01314316
0.45432	0.01423996
0.4544	0.01452074
0.45448	0.0141757
0.45456	0.01458566
0.45464	0.01487821
0.45472	0.015632
0.4548	0.01622487
0.45488	0.01569208
0.45496	0.01519994
0.45504	0.01531078
0.45512	0.01547071
0.4552	0.015802
0.45528	0.01624189
0.45536	0.01692628
0.45544	0.01713784
0.45552	0.01716175
0.4556	0.0172297
0.45568	0.01743354
0.45576	0.01760763
0.45584	0.01731801
0.45592	0.01702624
0.456	0.01641337
0.45608	0.01562537
0.45616	0.015388
0.45624	0.01599522
0.45632	0.01655328
0.4564	0.01681938
0.45648	0.01677451
0.45656	0.0165637
0.45664	0.01630763
0.45672	0.01561815
0.4568	0.01514376
0.45688	0.01434084
0.45696	0.0141223
0.45704	0.01401597
0.45712	0.01368074
0.4572	0.01285481
0.45728	0.01224372
0.45736	0.01187059
0.45744	0.011498
0.45752	0.01084832
0.4576	0.009713287
0.45768	0.008834806
0.45776	0.008604037
0.45784	0.008623792
0.45792	0.008486715
0.458	0.008166906
0.45808	0.007613263
0.45816	0.007447077
0.45824	0.007612745
0.45832	0.00754937
0.4584	0.006644838
0.45848	0.005985671
0.45856	0.004961342
0.45864	0.003814195
0.45872	0.003266246
0.4588	0.002875685
0.45888	0.002969922
0.45896	0.002832734
0.45904	0.002369436
0.45912	0.002842181
0.4592	0.003202831
0.45928	0.002966422
0.45936	0.002187395
0.45944	0.002441129
0.45952	0.002935048
0.4596	0.002520407
0.45968	0.002029253
0.45976	0.001672171
0.45984	0.00137113
0.45992	0.001232123
0.46	0.0004426305
0.46008	-0.0006408035
0.46016	-0.001880711
0.46024	-0.002795967
0.46032	-0.003122134
0.4604	-0.004051149
0.46048	-0.005036428
0.46056	-0.005942824
0.46064	-0.006343218
0.46072	-0.006213413
0.4608	-0.006440271
0.46088	-0.006866908
0.46096	-0.007802279
0.46104	-0.009154514
0.46112	-0.01034093
0.4612	-0.01088647
0.46128	-0.01167453
0.46136	-0.01253897
0.46144	-0.01313922
0.46152	-0.0132103
0.4616	-0.01294009
0.46168	-0.01310384
0.46176	-0.01312198
0.46184	-0.01292491
0.46192	-0.01295499
0.462	-0.01337791
0.46208	-0.01339901
0.46216	-0.01345096
0.46224	-0.01388085
0.46232	-0.01415698
0.4624	-0.01366959
0.46248	-0.01327917
0.46256	-0.01324091
0.46264	-0.01363858
0.46272	-0.01423683
0.4628	-0.01541368
0.46288	-0.01626738
0.46296	-0.01671317
0.46304	-0.01692277
0.46312	-0.01702877
0.4632	-0.01666074
0.46328	-0.0162601
0.46336	-0.01566595
0.46344	-0.01540223
0.46352	-0.01553219
0.4636	-0.01551814
0.46368	-0.01526165
0.46376	-0.01493663
0.46384	-0.01514053
0.46392	-0.01468601
0.464	-0.01415141
0.46408	-0.01458094
0.46416	-0.01491415
0.46424	-0.01551358
0.46432	-0.01532293
0.4644	-0.01540822
0.46448	-0.01569791
0.46456	-0.01559805
0.46464	-0.01519399
0.46472	-0.0154792
0.4648	-0.01566833
0.46488	-0.01602076
0.46496	-0.01591903
0.46504	-0.01635988
0.46512	-0.01697163
0.4652	-0.01693135
0.46528	-0.01656402
0.46536	-0.01650854
0.46544	-0.01693131
0.46552	-0.01687371
0.4656	-0.01691425
0.46568	-0.01744504
0.46576	-0.01831974
0.46584	-0.01873765
0.46592	-0.01894296
0.466	-0.0191966
0.46608	-0.01897544
0.46616	-0.01901219
0.46624	-0.01915568
0.46632	-0.01913843
0.4664	-0.01852368
0.46648	-0.01788537
0.46656	-0.01731552
0.46664	-0.01659561
0.46672	-0.01593943
0.4668	-0.01584698
0.46688	-0.01492134
0.46696	-0.01400918
0.46704	-0.01327799
0.46712	-0.01323763
0.4672	-0.0132056
0.46728	-0.01343697
0.46736	-0.01344257
0.46744	-0.01310281
0.46752	-0.012697
0.4676	-0.01220199
0.46768	-0.0117908
0.46776	-0.01080349
0.46784	-0.01004543
0.46792	-0.009912555
0.468	-0.01005004
0.46808	-0.009381915
0.46816	-0.007913398
0.46824	-0.006584301
0.46832	-0.00540592
0.4684	-0.00467554
0.46848	-0.004057215
0.46856	-0.004342499
0.46864	-0.003940906
0.46872	-0.003382007
0.4688	-0.003683864
0.46888	-0.003591302
0.46896	-0.003197687
0.46904	-0.002788467
0.46912	-0.002411909
0.4692	-0.001848448
0.46928	-0.001697168
0.46936	-0.001302396
0.46944	-0.001165834
0.46952	-0.001048049
0.4696	-0.0008574476
0.46968	-0.0009183458
0.46976	-0.001748789
0.46984	-0.00196125
0.46992	-0.001715596
0.47	-0.001383978
0.47008	-0.000886076
0.47016	-0.0001933934
0.47024	0.0008007408
0.47032	0.001857446
0.4704	0.002972888
0.47048	0.003407591
0.47056	0.003796422
0.47064	0.004160944
0.47072	0.004506548
0.4708	0.004945843
0.47088	0.005866264
0.47096	0.006705339
0.47104	0.007579348
0.47112	0.008686038
0.4712	0.009205339
0.47128	0.009147538
0.47136	0.008581255
0.47144	0.008137305
0.47152	0.008765087
0.4716	0.009149726
0.47168	0.009332128
0.47176	0.009521364
0.47184	0.010738
0.47192	0.01180681
0.472	0.01186628
0.47208	0.01194747
0.47216	0.01092133
0.47224	0.0106681
0.47232	0.01108396
0.4724	0.01118309
0.47248	0.0113645
0.47256	0.01258521
0.47264	0.01351811
0.47272	0.01355848
0.4728	0.01351495
0.47288	0.01335644
0.47296	0.01281522
0.47304	0.01219419
0.47312	0.01149992
0.4732	0.01123755
0.47328	0.01147034
0.47336	0.01141501
0.47344	0.01156717
0.47352	0.01165033
0.4736	0.01144035
0.47368	0.01155186
0.47376	0.0120863
0.47384	0.01280036
0.47392	0.01268285
0.474	0.01204224
0.47408	0.01181784
0.47416	0.01152592
0.47424	0.01107235
0.47432	0.0108389
0.4744	0.01196265
0.47448	0.01321846
0.47456	0.01360776
0.47464	0.01409828
0.47472	0.01392228
0.4748	0.01366616
0.47488	0.01364103
0.47496	0.0126965
0.47504	0.01244939
0.47512	0.01239502
0.4752	0.01202093
0.47528	0.01116956
0.47536	0.01036279
0.47544	0.01032566
0.47552	0.009993288
0.4756	0.01030558
0.47568	0.01082901
0.47576	0.0108384
0.47584	0.01054768
0.47592	0.01029953
0.476	0.01038877
0.47608	0.01127677
0.47616	0.01207924
0.47624	0.01235444
0.47632	0.01251088
0.4764	0.0121713
0.47648	0.01172406
0.47656	0.01119609
0.47664	0.01073795
0.47672	0.0100146
0.4768	0.009258953
0.47688	0.009014466
0.47696	0.009350385
0.47704	0.00973325
0.47712	0.01054128
0.4772	0.010891
0.47728	0.01090086
0.47736	0.0101895
0.47744	0.00960265
0.47752	0.009643231
0.4776	0.009349155
0.47768	0.009283431
0.47776	0.009922014
0.47784	0.0105088
0.47792	0.01023969
0.478	0.009753923
0.47808	0.009327516
0.47816	0.008541991
0.47824	0.007947156
0.47832	0.007857742
0.4784	0.00777834
0.47848	0.007125515
0.47856	0.006235673
0.47864	0.005562145
0.47872	0.004835422
0.4788	0.00417203
0.47888	0.003948628
0.47896	0.003826932
0.47904	0.003695847
0.47912	0.003930638
0.4792	0.003501857
0.47928	0.002909146
0.47936	0.002326283
0.47944	0.002042451
0.47952	0.002022814
0.4796	0.002353909
0.47968	0.002941539
0.47976	0.003021325
0.47984	0.002812766
0.47992	0.002205864
0.48	0.001780342
0.48008	0.0005756324
0.48016	-0.0005341365
0.48024	-0.0007200434
0.48032	-0.0008821131
0.4804	-0.001367376
0.48048	-0.0021499
0.48056	-0.002788258
0.48064	-0.003095371
0.48072	-0.003904921
0.4808	-0.00389382
0.48088	-0.003811698
0.48096	-0.004181616
0.48104	-0.00400161
0.48112	-0.003920127
0.4812	-0.003659876
0.48128	-0.003866867
0.48136	-0.003946092
0.48144	-0.00412392
0.48152	-0.004359207
0.4816	-0.004627158
0.48168	-0.005568958
0.48176	-0.00672929
0.48184	-0.007235224
0.48192	-0.007648986
0.482	-0.00808861
0.48208	-0.008223686
0.48216	-0.00815557
0.48224	-0.008341967
0.48232	-0.009129581
0.4824	-0.009925691
0.48248	-0.0106371
0.48256	-0.01123638
0.48264	-0.01198338
0.48272	-0.01228034
0.4828	-0.01254533
0.48288	-0.01251737
0.48296	-0.01221253
0.48304	-0.01212767
0.48312	-0.01252616
0.4832	-0.01299064
0.48328	-0.01286255
0.48336	-0.01297019
0.48344	-0.01282488
0.48352	-0.01316925
0.4836	-0.01382102
0.48368	-0.01386259
0.48376	-0.01369994
0.48384	-0.0136795
0.48392	-0.01336753
0.484	-0.01266117
0.48408	-0.01282585
0.48416	-0.01310473
0.48424	-0.01409766
0.48432	-0.01482087
0.4844	-0.01565851
0.48448	-0.01531856
0.48456	-0.01516378
0.48464	-0.01569167
0.48472	-0.01584002
0.4848	-0.01586422
0.48488	-0.01526851
0.48496	-0.01422402
0.48504	-0.01400556
0.48512	-0.01410524
0.4852	-0.01434465
0.48528	-0.01503465
0.48536	-0.01566664
0.48544	-0.01598389
0.48552	-0.01592583
0.4856	-0.01566724
0.48568	-0.01586175
0.48576	-0.01618727
0.48584	-0.01649935
0.48592	-0.01682334
0.486	-0.01689479
0.48608	-0.01677136
0.48616	-0.01624247
0.48624	-0.01519446
0.48632	-0.01439167
0.4864	-0.01405368
0.48648	-0.01455913
0.48656	-0.01514908
0.48664	-0.01593312
0.48672	-0.01618757
0.4868	-0.01561791
0.48688	-0.01451553
0.48696	-0.01311726
0.48704	-0.01212743
0.48712	-0.01200932
0.4872	-0.01239426
0.48728	-0.01206821
0.48736	-0.01166106
0.48744	-0.01069096
0.48752	-0.009132284
0.4876	-0.008558665
0.48768	-0.008333301
0.48776	-0.007931383
