Source File Name:	Scan
Signal:	Time - Ref1 Voltage - Samples

Time	Time Signal
[ s ]	[ V ]
0	0.01749298
8e-5	0.01728437
0.00016	0.01770874
0.00024	0.01861676
0.00032	0.01939984
0.0004	0.01951241
0.00048	0.02035662
0.00056	0.02124098
0.00064	0.02142714
0.00072	0.02124828
0.0008	0.02106246
0.00088	0.02115233
0.00096	0.02130326
0.00104	0.0211926
0.00112	0.02087344
0.0012	0.02153264
0.00128	0.02141731
0.00136	0.02086366
0.00144	0.02074517
0.00152	0.02131178
0.0016	0.02181861
0.00168	0.02226477
0.00176	0.02288118
0.00184	0.02302927
0.00192	0.0233972
0.002	0.02383474
0.00208	0.02376111
0.00216	0.02312195
0.00224	0.0228668
0.00232	0.02274401
0.0024	0.02266227
0.00248	0.02296801
0.00256	0.022888
0.00264	0.02241975
0.00272	0.02175627
0.0028	0.02074908
0.00288	0.02014327
0.00296	0.01996877
0.00304	0.01993674
0.00312	0.02019951
0.0032	0.02105362
0.00328	0.0212215
0.00336	0.02004293
0.00344	0.01926226
0.00352	0.01918317
0.0036	0.01977188
0.00368	0.01980878
0.00376	0.01963723
0.00384	0.01982613
0.00392	0.01976755
0.004	0.01936745
0.00408	0.01837745
0.00416	0.01748457
0.00424	0.01706259
0.00432	0.0166035
0.0044	0.01596724
0.00448	0.0150857
0.00456	0.01500236
0.00464	0.01550564
0.00472	0.01510223
0.0048	0.01474343
0.00488	0.0143704
0.00496	0.01433358
0.00504	0.0138415
0.00512	0.01367258
0.0052	0.01305752
0.00528	0.01222824
0.00536	0.01151791
0.00544	0.01089337
0.00552	0.01055432
0.0056	0.009974677
0.00568	0.009733761
0.00576	0.009733063
0.00584	0.01016506
0.00592	0.01023731
0.006	0.009551147
0.00608	0.008981241
0.00616	0.008200742
0.00624	0.00744965
0.00632	0.007483791
0.0064	0.007342228
0.00648	0.007216992
0.00656	0.006359367
0.00664	0.005406749
0.00672	0.004094733
0.0068	0.002711009
0.00688	0.002234171
0.00696	0.001776053
0.00704	0.001092899
0.00712	0.0002112552
0.0072	0.0001908769
0.00728	-0.0004835377
0.00736	-0.002183032
0.00744	-0.003408786
0.00752	-0.003986378
0.0076	-0.004764259
0.00768	-0.005099945
0.00776	-0.005135091
0.00784	-0.005410067
0.00792	-0.005806779
0.008	-0.007192146
0.00808	-0.008488639
0.00816	-0.009673043
0.00824	-0.01091715
0.00832	-0.01156567
0.0084	-0.01168553
0.00848	-0.0113436
0.00856	-0.01130341
0.00864	-0.01146443
0.00872	-0.01190563
0.0088	-0.01223473
0.00888	-0.01311525
0.00896	-0.0138693
0.00904	-0.01424948
0.00912	-0.0146391
0.0092	-0.01529699
0.00928	-0.01589548
0.00936	-0.01638938
0.00944	-0.01720995
0.00952	-0.01737072
0.0096	-0.01767928
0.00968	-0.01837522
0.00976	-0.01862925
0.00984	-0.01892798
0.00992	-0.01985467
0.01	-0.02045809
0.01008	-0.02033965
0.01016	-0.02023776
0.01024	-0.02057806
0.01032	-0.02094602
0.0104	-0.02058267
0.01048	-0.02067424
0.01056	-0.02164895
0.01064	-0.02240545
0.01072	-0.02203044
0.0108	-0.02182962
0.01088	-0.02271413
0.01096	-0.02347415
0.01104	-0.02378475
0.01112	-0.02420023
0.0112	-0.02444016
0.01128	-0.02442631
0.01136	-0.02360167
0.01144	-0.02260299
0.01152	-0.02278848
0.0116	-0.0228833
0.01168	-0.02237532
0.01176	-0.02286704
0.01184	-0.02349184
0.01192	-0.02363634
0.012	-0.02382677
0.01208	-0.02390635
0.01216	-0.0234859
0.01224	-0.02277268
0.01232	-0.02171341
0.0124	-0.02062159
0.01248	-0.01950979
0.01256	-0.01888735
0.01264	-0.01863284
0.01272	-0.01857799
0.0128	-0.0185827
0.01288	-0.01860967
0.01296	-0.01845023
0.01304	-0.01871016
0.01312	-0.01873429
0.0132	-0.01926917
0.01328	-0.01964012
0.01336	-0.019796
0.01344	-0.01964989
0.01352	-0.01899558
0.0136	-0.01869541
0.01368	-0.01861442
0.01376	-0.01898775
0.01384	-0.02008684
0.01392	-0.0212161
0.014	-0.02222077
0.01408	-0.02276297
0.01416	-0.02246705
0.01424	-0.02231203
0.01432	-0.02193383
0.0144	-0.02176527
0.01448	-0.02215364
0.01456	-0.02238947
0.01464	-0.02232797
0.01472	-0.02154737
0.0148	-0.02114787
0.01488	-0.02090907
0.01496	-0.02005764
0.01504	-0.01905186
0.01512	-0.01839082
0.0152	-0.01803459
0.01528	-0.0178119
0.01536	-0.0165645
0.01544	-0.01532044
0.01552	-0.01378171
0.0156	-0.01297619
0.01568	-0.01226992
0.01576	-0.01203591
0.01584	-0.01198398
0.01592	-0.01164089
0.016	-0.01070382
0.01608	-0.01024201
0.01616	-0.0100469
0.01624	-0.009198408
0.01632	-0.008295224
0.0164	-0.007324073
0.01648	-0.006386267
0.01656	-0.004800124
0.01664	-0.00408016
0.01672	-0.003511504
0.0168	-0.003061357
0.01688	-0.002067386
0.01696	-0.001159545
0.01704	-0.0001723002
0.01712	0.0004153725
0.0172	0.0009537694
0.01728	0.001904476
0.01736	0.002267881
0.01744	0.00286056
0.01752	0.003495072
0.0176	0.003493028
0.01768	0.003502454
0.01776	0.003790503
0.01784	0.004029642
0.01792	0.003996344
0.018	0.004460815
0.01808	0.005671392
0.01816	0.006133044
0.01824	0.006673136
0.01832	0.007911555
0.0184	0.009169637
0.01848	0.01016295
0.01856	0.01107353
0.01864	0.01199374
0.01872	0.01284055
0.0188	0.01393318
0.01888	0.01504991
0.01896	0.01517066
0.01904	0.01548428
0.01912	0.01611238
0.0192	0.01670756
0.01928	0.01755178
0.01936	0.01900294
0.01944	0.02028612
0.01952	0.02150836
0.0196	0.02192155
0.01968	0.02241365
0.01976	0.02282546
0.01984	0.02264059
0.01992	0.02263829
0.02	0.02286723
0.02008	0.02317854
0.02016	0.02299102
0.02024	0.02322758
0.02032	0.02370696
0.0204	0.0233596
0.02048	0.02321745
0.02056	0.02349422
0.02064	0.02393398
0.02072	0.02463761
0.0208	0.02485131
0.02088	0.02473478
0.02096	0.02480014
0.02104	0.02514018
0.02112	0.02532535
0.0212	0.02571681
0.02128	0.02620692
0.02136	0.02644489
0.02144	0.02632245
0.02152	0.02606591
0.0216	0.02604534
0.02168	0.02584496
0.02176	0.02565276
0.02184	0.02613447
0.02192	0.02624669
0.022	0.02584162
0.02208	0.02496192
0.02216	0.02400709
0.02224	0.0230902
0.02232	0.02251412
0.0224	0.02296662
0.02248	0.0242984
0.02256	0.02432268
0.02264	0.02303019
0.02272	0.02192003
0.0228	0.02134302
0.02288	0.02074939
0.02296	0.02061384
0.02304	0.02061914
0.02312	0.02037345
0.0232	0.01965375
0.02328	0.0186217
0.02336	0.01830576
0.02344	0.01831767
0.02352	0.01838286
0.0236	0.01891209
0.02368	0.01923541
0.02376	0.01869885
0.02384	0.01776769
0.02392	0.01741015
0.024	0.01767972
0.02408	0.01733464
0.02416	0.01689305
0.02424	0.01616801
0.02432	0.01591597
0.0244	0.01616553
0.02448	0.01550916
0.02456	0.0144184
0.02464	0.01441988
0.02472	0.01508934
0.0248	0.01593294
0.02488	0.0160965
0.02496	0.01576714
0.02504	0.01536486
0.02512	0.01486589
0.0252	0.01386591
0.02528	0.01264397
0.02536	0.01179133
0.02544	0.01131076
0.02552	0.01105022
0.0256	0.01041343
0.02568	0.009618466
0.02576	0.008422991
0.02584	0.007989024
0.02592	0.007434149
0.026	0.0067784
0.02608	0.006504207
0.02616	0.006038877
0.02624	0.005378274
0.02632	0.005202534
0.0264	0.005136558
0.02648	0.004364749
0.02656	0.00353202
0.02664	0.002869018
0.02672	0.002952356
0.0268	0.002481974
0.02688	0.001965131
0.02696	0.002226589
0.02704	0.001631393
0.02712	0.0005799067
0.0272	0.0001196864
0.02728	-0.0003234662
0.02736	-0.0007779874
0.02744	-0.001371893
0.02752	-0.001840945
0.0276	-0.002438563
0.02768	-0.003648803
0.02776	-0.00510669
0.02784	-0.006284028
0.02792	-0.006996688
0.028	-0.007715023
0.02808	-0.007973613
0.02816	-0.008236029
0.02824	-0.008931475
0.02832	-0.009116326
0.0284	-0.009464986
0.02848	-0.009726028
0.02856	-0.009398715
0.02864	-0.008819852
0.02872	-0.00853869
0.0288	-0.008574459
0.02888	-0.008819045
0.02896	-0.009110988
0.02904	-0.009761455
0.02912	-0.01049094
0.0292	-0.0109229
0.02928	-0.01116548
0.02936	-0.01140527
0.02944	-0.01190239
0.02952	-0.01265963
0.0296	-0.01284591
0.02968	-0.01244217
0.02976	-0.01245108
0.02984	-0.01261841
0.02992	-0.01328266
0.03	-0.0144095
0.03008	-0.01542783
0.03016	-0.01635392
0.03024	-0.01699599
0.03032	-0.01712672
0.0304	-0.01723714
0.03048	-0.01854787
0.03056	-0.01938431
0.03064	-0.01967317
0.03072	-0.02009197
0.0308	-0.0205227
0.03088	-0.02139081
0.03096	-0.0214774
0.03104	-0.02080035
0.03112	-0.02078463
0.0312	-0.02091238
0.03128	-0.02082435
0.03136	-0.02116756
0.03144	-0.02122633
0.03152	-0.02122164
0.0316	-0.02139452
0.03168	-0.02150447
0.03176	-0.02103354
0.03184	-0.02005785
0.03192	-0.0197069
0.032	-0.01955341
0.03208	-0.01976365
0.03216	-0.02045145
0.03224	-0.02118751
0.03232	-0.02206787
0.0324	-0.02203456
0.03248	-0.02106877
0.03256	-0.02078141
0.03264	-0.02125699
0.03272	-0.0217029
0.0328	-0.02148753
0.03288	-0.02149096
0.03296	-0.02202344
0.03304	-0.02273032
0.03312	-0.02298485
0.0332	-0.02299969
0.03328	-0.02296476
0.03336	-0.02323437
0.03344	-0.02312708
0.03352	-0.02274931
0.0336	-0.02204124
0.03368	-0.0210091
0.03376	-0.02038316
0.03384	-0.02071764
0.03392	-0.02164524
0.034	-0.02159249
0.03408	-0.02140588
0.03416	-0.02049259
0.03424	-0.01911677
0.03432	-0.01778801
0.0344	-0.01706227
0.03448	-0.01655712
0.03456	-0.01605651
0.03464	-0.01504001
0.03472	-0.01413891
0.0348	-0.0139428
0.03488	-0.01325134
0.03496	-0.01305089
0.03504	-0.01247028
0.03512	-0.01165448
0.0352	-0.01170824
0.03528	-0.01164812
0.03536	-0.01136714
0.03544	-0.01098192
0.03552	-0.01057559
0.0356	-0.01033828
0.03568	-0.009476617
0.03576	-0.008368067
0.03584	-0.007862349
0.03592	-0.008031605
0.036	-0.007474684
0.03608	-0.006676715
0.03616	-0.00680341
0.03624	-0.006645701
0.03632	-0.005719443
0.0364	-0.005048554
0.03648	-0.004763558
0.03656	-0.004488235
0.03664	-0.00446247
0.03672	-0.004979466
0.0368	-0.005467731
0.03688	-0.00545877
0.03696	-0.005067365
0.03704	-0.004278617
0.03712	-0.004225574
0.0372	-0.004187988
0.03728	-0.00371775
0.03736	-0.003114496
0.03744	-0.00226603
0.03752	-0.001491987
0.0376	-0.0009850155
0.03768	-6.716362e-5
0.03776	0.001321066
0.03784	0.001947816
0.03792	0.002789328
0.038	0.002915329
0.03808	0.003056308
0.03816	0.002575759
0.03824	0.002188467
0.03832	0.002313051
0.0384	0.002367438
0.03848	0.002974868
0.03856	0.003795286
0.03864	0.004663174
0.03872	0.005074389
0.0388	0.005948055
0.03888	0.007346121
0.03896	0.008190776
0.03904	0.008620671
0.03912	0.009371555
0.0392	0.01013881
0.03928	0.0110142
0.03936	0.01209278
0.03944	0.01281613
0.03952	0.01302623
0.0396	0.0131431
0.03968	0.01318603
0.03976	0.01357955
0.03984	0.01382338
0.03992	0.01380164
0.04	0.01452343
0.04008	0.01526901
0.04016	0.01569499
0.04024	0.01607959
0.04032	0.01654331
0.0404	0.01631134
0.04048	0.01618708
0.04056	0.01625302
0.04064	0.0164174
0.04072	0.01688507
0.0408	0.01704974
0.04088	0.01719464
0.04096	0.01760059
0.04104	0.01812597
0.04112	0.01901075
0.0412	0.02000802
0.04128	0.02073396
0.04136	0.02108844
0.04144	0.0219789
0.04152	0.02234315
0.0416	0.02183498
0.04168	0.02138358
0.04176	0.02084329
0.04184	0.02091182
0.04192	0.02153979
0.042	0.0221381
0.04208	0.02283166
0.04216	0.0233839
0.04224	0.02336216
0.04232	0.02269351
0.0424	0.02233054
0.04248	0.02269367
0.04256	0.02343156
0.04264	0.02380881
0.04272	0.02365069
0.0428	0.02386516
0.04288	0.02402653
0.04296	0.02378366
0.04304	0.02341464
0.04312	0.02384824
0.0432	0.02373305
0.04328	0.02367794
0.04336	0.02317565
0.04344	0.02272369
0.04352	0.02216713
0.0436	0.02214128
0.04368	0.0216943
0.04376	0.02113718
0.04384	0.02082462
0.04392	0.02010266
0.044	0.0192246
0.04408	0.01898977
0.04416	0.01875884
0.04424	0.01851708
0.04432	0.01794254
0.0444	0.01777132
0.04448	0.01766114
0.04456	0.01725367
0.04464	0.01675226
0.04472	0.01550047
0.0448	0.01458288
0.04488	0.01381068
0.04496	0.01345752
0.04504	0.01308888
0.04512	0.0121854
0.0452	0.01171113
0.04528	0.01119694
0.04536	0.01078907
0.04544	0.01019397
0.04552	0.009914032
0.0456	0.009452512
0.04568	0.008261628
0.04576	0.007226499
0.04584	0.0067914
0.04592	0.006245677
0.046	0.005992332
0.04608	0.005475766
0.04616	0.00476901
0.04624	0.004175401
0.04632	0.003385008
0.0464	0.003019969
0.04648	0.002968493
0.04656	0.002699304
0.04664	0.002379547
0.04672	0.002614586
0.0468	0.002964131
0.04688	0.002919476
0.04696	0.00287808
0.04704	0.003348847
0.04712	0.003422053
0.0472	0.00272081
0.04728	0.002113766
0.04736	0.001066624
0.04744	0.0003599997
0.04752	-0.0001251767
0.0476	-0.0006175635
0.04768	-0.001083094
0.04776	-0.002202929
0.04784	-0.003002524
0.04792	-0.003685344
0.048	-0.004581337
0.04808	-0.004947645
0.04816	-0.005537953
0.04824	-0.0062455
0.04832	-0.006328551
0.0484	-0.006274742
0.04848	-0.00620448
0.04856	-0.005945662
0.04864	-0.00561022
0.04872	-0.00616753
0.0488	-0.006866208
0.04888	-0.00715217
0.04896	-0.007847659
0.04904	-0.00859031
0.04912	-0.009803116
0.0492	-0.01054894
0.04928	-0.01090989
0.04936	-0.01112303
0.04944	-0.01156816
0.04952	-0.01255516
0.0496	-0.01352828
0.04968	-0.01453827
0.04976	-0.01484012
0.04984	-0.01553991
0.04992	-0.01644089
0.05	-0.01706124
0.05008	-0.01749171
0.05016	-0.01816186
0.05024	-0.01929678
0.05032	-0.02030872
0.0504	-0.02058864
0.05048	-0.02031337
0.05056	-0.02060464
0.05064	-0.02124108
0.05072	-0.02117755
0.0508	-0.02064278
0.05088	-0.01982024
0.05096	-0.01907035
0.05104	-0.01909293
0.05112	-0.01883765
0.0512	-0.01908931
0.05128	-0.01983659
0.05136	-0.02079428
0.05144	-0.02127166
0.05152	-0.02138643
0.0516	-0.02152557
0.05168	-0.02177161
0.05176	-0.02195991
0.05184	-0.02210164
0.05192	-0.02237216
0.052	-0.02283672
0.05208	-0.02352114
0.05216	-0.02343913
0.05224	-0.02337442
0.05232	-0.0228724
0.0524	-0.02216626
0.05248	-0.02177288
0.05256	-0.02165568
0.05264	-0.02158435
0.05272	-0.02163315
0.0528	-0.02169763
0.05288	-0.02155715
0.05296	-0.02175254
0.05304	-0.02176721
0.05312	-0.02110167
0.0532	-0.02077731
0.05328	-0.02018259
0.05336	-0.01940939
0.05344	-0.01912499
0.05352	-0.01952942
0.0536	-0.01952239
0.05368	-0.02000745
0.05376	-0.02034527
0.05384	-0.01985307
0.05392	-0.02032813
0.054	-0.02075122
0.05408	-0.0206013
0.05416	-0.02049922
0.05424	-0.01995318
0.05432	-0.0190733
0.0544	-0.01924718
0.05448	-0.01929341
0.05456	-0.01905298
0.05464	-0.01865542
0.05472	-0.01810994
0.0548	-0.01717455
0.05488	-0.01672872
0.05496	-0.01642652
0.05504	-0.01618426
0.05512	-0.01548961
0.0552	-0.01473666
0.05528	-0.01457623
0.05536	-0.01365266
0.05544	-0.01268057
0.05552	-0.01162544
0.0556	-0.01090198
0.05568	-0.01062311
0.05576	-0.0104033
0.05584	-0.0102152
0.05592	-0.0100359
0.056	-0.009583621
0.05608	-0.008888511
0.05616	-0.008780249
0.05624	-0.008332182
0.05632	-0.007604588
0.0564	-0.006816281
0.05648	-0.006613375
0.05656	-0.005891528
0.05664	-0.005454639
0.05672	-0.005401856
0.0568	-0.005626116
0.05688	-0.004805555
0.05696	-0.004041921
0.05704	-0.003334368
0.05712	-0.002639571
0.0572	-0.001597295
0.05728	-0.0009653693
0.05736	-0.0005086632
0.05744	0.0004896414
0.05752	0.001313083
0.0576	0.002151199
0.05768	0.002565664
0.05776	0.002523315
0.05784	0.002407314
0.05792	0.002539217
0.058	0.002438636
0.05808	0.003078274
0.05816	0.003913915
0.05824	0.004115246
0.05832	0.004501395
0.0584	0.004875309
0.05848	0.005513474
0.05856	0.005835475
0.05864	0.005907665
0.05872	0.006957404
0.0588	0.008648494
0.05888	0.01026156
0.05896	0.01028425
0.05904	0.01028034
0.05912	0.01097498
0.0592	0.01162402
0.05928	0.0120641
0.05936	0.01240945
0.05944	0.01321096
0.05952	0.01432888
0.0596	0.01471478
0.05968	0.01435808
0.05976	0.0140549
0.05984	0.01396349
0.05992	0.0142953
0.06	0.01490177
0.06008	0.01579078
0.06016	0.0164928
0.06024	0.01695693
0.06032	0.01757634
0.0604	0.01843813
0.06048	0.01930012
0.06056	0.01976483
0.06064	0.02034572
0.06072	0.02119276
0.0608	0.02147662
0.06088	0.02127058
0.06096	0.02109192
0.06104	0.02062776
0.06112	0.02078167
0.0612	0.02077584
0.06128	0.02102358
0.06136	0.02109113
0.06144	0.02129049
0.06152	0.02178115
0.0616	0.02166708
0.06168	0.02142145
0.06176	0.0209147
0.06184	0.02039107
0.06192	0.02006842
0.062	0.01986407
0.06208	0.01990721
0.06216	0.02023624
0.06224	0.02125872
0.06232	0.02208146
0.0624	0.02263463
0.06248	0.02309178
0.06256	0.02361177
0.06264	0.02392359
0.06272	0.02358396
0.0628	0.02411166
0.06288	0.02454974
0.06296	0.02505423
0.06304	0.02490763
0.06312	0.02510791
0.0632	0.02477919
0.06328	0.02364912
0.06336	0.02265478
0.06344	0.02236297
0.06352	0.02232278
0.0636	0.02221951
0.06368	0.02285326
0.06376	0.02277745
0.06384	0.02222003
0.06392	0.02121925
0.064	0.0204596
0.06408	0.01921648
0.06416	0.0184406
0.06424	0.01782722
0.06432	0.01757618
0.0644	0.01773967
0.06448	0.01732062
0.06456	0.0169138
0.06464	0.01621439
0.06472	0.01597887
0.0648	0.01597481
0.06488	0.01597261
0.06496	0.01546818
0.06504	0.01484763
0.06512	0.01411506
0.0652	0.01368961
0.06528	0.01339498
0.06536	0.0124559
0.06544	0.01194002
0.06552	0.0118933
0.0656	0.01187488
0.06568	0.01136443
0.06576	0.01145063
0.06584	0.01140139
0.06592	0.0112945
0.066	0.01093611
0.06608	0.01036482
0.06616	0.009538266
0.06624	0.008979711
0.06632	0.008999001
0.0664	0.008709924
0.06648	0.008760856
0.06656	0.008825403
0.06664	0.008229954
0.06672	0.007204109
0.0668	0.006126135
0.06688	0.00484709
0.06696	0.003522603
0.06704	0.002639668
0.06712	0.001671283
0.0672	0.0004862408
0.06728	8.50833e-5
0.06736	-0.0004096687
0.06744	-0.0005826235
0.06752	-0.001466777
0.0676	-0.002439608
0.06768	-0.003319969
0.06776	-0.003860944
0.06784	-0.004023077
0.06792	-0.004387933
0.068	-0.004471795
0.06808	-0.005009761
0.06816	-0.005190743
0.06824	-0.005472772
0.06832	-0.006009636
0.0684	-0.007754437
0.06848	-0.009132903
0.06856	-0.009754785
0.06864	-0.009478842
0.06872	-0.009895731
0.0688	-0.01088098
0.06888	-0.0117729
0.06896	-0.01275943
0.06904	-0.01299513
0.06912	-0.01364152
0.0692	-0.01450414
0.06928	-0.01522489
0.06936	-0.01545545
0.06944	-0.01613717
0.06952	-0.0172956
0.0696	-0.0185976
0.06968	-0.02004657
0.06976	-0.0211971
0.06984	-0.02206816
0.06992	-0.02315043
0.07	-0.02363648
0.07008	-0.02334059
0.07016	-0.02364779
0.07024	-0.02366724
0.07032	-0.02383362
0.0704	-0.02438483
0.07048	-0.02478239
0.07056	-0.02495179
0.07064	-0.02559556
0.07072	-0.0264635
0.0708	-0.02674006
0.07088	-0.0267125
0.07096	-0.0267503
0.07104	-0.02665065
0.07112	-0.02744677
0.0712	-0.02787102
0.07128	-0.02791402
0.07136	-0.0274353
0.07144	-0.02735894
0.07152	-0.02721671
0.0716	-0.02724507
0.07168	-0.02729141
0.07176	-0.02700203
0.07184	-0.0265976
0.07192	-0.02556297
0.072	-0.02482354
0.07208	-0.02403191
0.07216	-0.02372485
0.07224	-0.02298398
0.07232	-0.02226361
0.0724	-0.02131799
0.07248	-0.02045921
0.07256	-0.01953825
0.07264	-0.01914363
0.07272	-0.0194251
0.0728	-0.01910415
0.07288	-0.01842624
0.07296	-0.01772714
0.07304	-0.01762583
0.07312	-0.01806299
0.0732	-0.01901834
0.07328	-0.01985018
0.07336	-0.02035083
0.07344	-0.01967338
0.07352	-0.01862523
0.0736	-0.01829335
0.07368	-0.01795646
0.07376	-0.01782599
0.07384	-0.01763357
0.07392	-0.01721237
0.074	-0.0176289
0.07408	-0.01756841
0.07416	-0.01701916
0.07424	-0.01677801
0.07432	-0.01652402
0.0744	-0.01666427
0.07448	-0.0163395
0.07456	-0.01554171
0.07464	-0.01491064
0.07472	-0.0142218
0.0748	-0.01432311
0.07488	-0.01411058
0.07496	-0.01328253
0.07504	-0.01259022
0.07512	-0.01271907
0.0752	-0.01232533
0.07528	-0.01208107
0.07536	-0.01228851
0.07544	-0.01245164
0.07552	-0.01246864
0.0756	-0.01249979
0.07568	-0.01259868
0.07576	-0.01231647
0.07584	-0.01169062
0.07592	-0.0110972
0.076	-0.01088054
0.07608	-0.01043864
0.07616	-0.009905307
0.07624	-0.008772159
0.07632	-0.007447221
0.0764	-0.006164494
0.07648	-0.005348299
0.07656	-0.004406631
0.07664	-0.003629307
0.07672	-0.003117287
0.0768	-0.002659366
0.07688	-0.002298602
0.07696	-0.001808125
0.07704	-0.001498827
0.07712	-0.0009581787
0.0772	0.0004256235
0.07728	0.001537128
0.07736	0.00279056
0.07744	0.0039846
0.07752	0.004300919
0.0776	0.004797539
0.07768	0.005366122
0.07776	0.005548709
0.07784	0.005330257
0.07792	0.00594487
0.078	0.007091556
0.07808	0.00723119
0.07816	0.006988175
0.07824	0.007266001
0.07832	0.007632819
0.0784	0.008039827
0.07848	0.008622435
0.07856	0.009394492
0.07864	0.009539303
0.07872	0.009564936
0.0788	0.009443327
0.07888	0.009283037
0.07896	0.009876858
0.07904	0.0106449
0.07912	0.0110493
0.0792	0.01079521
0.07928	0.0112434
0.07936	0.01186252
0.07944	0.01200931
0.07952	0.01267483
0.0796	0.01302268
0.07968	0.01286277
0.07976	0.01316415
0.07984	0.01409401
0.07992	0.01549944
0.08	0.01583892
0.08008	0.01553223
0.08016	0.0155526
0.08024	0.01588956
0.08032	0.01617286
0.0804	0.01678024
0.08048	0.01800063
0.08056	0.01893231
0.08064	0.01911729
0.08072	0.01935371
0.0808	0.01941881
0.08088	0.01948239
0.08096	0.01962643
0.08104	0.02004407
0.08112	0.01993883
0.0812	0.01942696
0.08128	0.01979952
0.08136	0.01982199
0.08144	0.02020637
0.08152	0.02085106
0.0816	0.02111726
0.08168	0.02153194
0.08176	0.02238705
0.08184	0.0235508
0.08192	0.0243153
0.082	0.02480044
0.08208	0.02508006
0.08216	0.02517211
0.08224	0.02567482
0.08232	0.02590443
0.0824	0.02572884
0.08248	0.02556252
0.08256	0.02518023
0.08264	0.02463199
0.08272	0.02373035
0.0828	0.02368903
0.08288	0.02366627
0.08296	0.02363696
0.08304	0.02379373
0.08312	0.02399085
0.0832	0.02384249
0.08328	0.02392356
0.08336	0.02457098
0.08344	0.02459161
0.08352	0.02431542
0.0836	0.02490751
0.08368	0.02546652
0.08376	0.02567136
0.08384	0.02515947
0.08392	0.02505085
0.084	0.02392664
0.08408	0.02245085
0.08416	0.02141132
0.08424	0.0209965
0.08432	0.02115097
0.0844	0.02099975
0.08448	0.02070848
0.08456	0.01958906
0.08464	0.01918056
0.08472	0.01934072
0.0848	0.01898701
0.08488	0.01832659
0.08496	0.01836573
0.08504	0.01839857
0.08512	0.01754362
0.0852	0.01634222
0.08528	0.0150656
0.08536	0.01427677
0.08544	0.0131806
0.08552	0.01238464
0.0856	0.01148294
0.08568	0.01037564
0.08576	0.008953612
0.08584	0.008154024
0.08592	0.007525431
0.086	0.007173459
0.08608	0.007153229
0.08616	0.007391706
0.08624	0.007411653
0.08632	0.008114911
0.0864	0.00791861
0.08648	0.007226078
0.08656	0.006409764
0.08664	0.005429303
0.08672	0.005498139
0.0868	0.0048019
0.08688	0.003675243
0.08696	0.003545541
0.08704	0.00370072
0.08712	0.003166421
0.0872	0.001777124
0.08728	0.0006165617
0.08736	-0.0005643197
0.08744	-0.001919177
0.08752	-0.002725853
0.0876	-0.002586547
0.08768	-0.002311419
0.08776	-0.002736901
0.08784	-0.002887706
0.08792	-0.003025968
0.088	-0.003219034
0.08808	-0.003487918
0.08816	-0.004374036
0.08824	-0.005458696
0.08832	-0.006888851
0.0884	-0.008416723
0.08848	-0.009069296
0.08856	-0.009509592
0.08864	-0.01004734
0.08872	-0.009663736
0.0888	-0.009453899
0.08888	-0.01008317
0.08896	-0.01102442
0.08904	-0.01155288
0.08912	-0.01227224
0.0892	-0.01277739
0.08928	-0.01318274
0.08936	-0.01355518
0.08944	-0.0136771
0.08952	-0.0138669
0.0896	-0.01400953
0.08968	-0.01449645
0.08976	-0.01433808
0.08984	-0.013424
0.08992	-0.01300041
0.09	-0.01339282
0.09008	-0.01375021
0.09016	-0.01396911
0.09024	-0.01416513
0.09032	-0.01399184
0.0904	-0.01373224
0.09048	-0.01414164
0.09056	-0.01501769
0.09064	-0.01644609
0.09072	-0.0172773
0.0908	-0.01771992
0.09088	-0.01860291
0.09096	-0.01954536
0.09104	-0.02031198
0.09112	-0.02155664
0.0912	-0.02284483
0.09128	-0.02341593
0.09136	-0.02357923
0.09144	-0.02323076
0.09152	-0.02319409
0.0916	-0.02399705
0.09168	-0.02500006
0.09176	-0.02569771
0.09184	-0.02578069
0.09192	-0.02520114
0.092	-0.02452469
0.09208	-0.0235465
0.09216	-0.02273146
0.09224	-0.02254372
0.09232	-0.02238311
0.0924	-0.02199643
0.09248	-0.0217716
0.09256	-0.02154596
0.09264	-0.02146019
0.09272	-0.02136469
0.0928	-0.02121972
0.09288	-0.02040068
0.09296	-0.02066151
0.09304	-0.02087127
0.09312	-0.02078124
0.0932	-0.02112696
0.09328	-0.02024248
0.09336	-0.0197499
0.09344	-0.01982653
0.09352	-0.01970076
0.0936	-0.01931087
0.09368	-0.01911872
0.09376	-0.01902552
0.09384	-0.01907549
0.09392	-0.01906289
0.094	-0.01857028
0.09408	-0.01830611
0.09416	-0.0183559
0.09424	-0.01862769
0.09432	-0.01873514
0.0944	-0.01830108
0.09448	-0.01798553
0.09456	-0.01758575
0.09464	-0.01721107
0.09472	-0.01664455
0.0948	-0.01593415
0.09488	-0.01535227
0.09496	-0.01545687
0.09504	-0.01587171
0.09512	-0.01575212
0.0952	-0.01532044
0.09528	-0.01418618
0.09536	-0.01352639
0.09544	-0.01285739
0.09552	-0.01181777
0.0956	-0.0111508
0.09568	-0.01025227
0.09576	-0.009367492
0.09584	-0.009032353
0.09592	-0.008265523
0.096	-0.007721056
0.09608	-0.00734313
0.09616	-0.007233995
0.09624	-0.006926002
0.09632	-0.006378116
0.0964	-0.005930243
0.09648	-0.00592806
0.09656	-0.006470621
0.09664	-0.006791885
0.09672	-0.005920998
0.0968	-0.004802268
0.09688	-0.003526149
0.09696	-0.002150093
0.09704	-0.001300014
0.09712	-0.000394212
0.0972	0.000119279
0.09728	-0.0001563332
0.09736	0.0001017856
0.09744	0.0003153167
0.09752	0.000439542
0.0976	0.0007929692
0.09768	0.0008681729
0.09776	0.001246932
0.09784	0.001679646
0.09792	0.002382559
0.098	0.002893916
0.09808	0.003160653
0.09816	0.003958168
0.09824	0.004532009
0.09832	0.004991094
0.0984	0.005504655
0.09848	0.005945774
0.09856	0.006394769
0.09864	0.006223893
0.09872	0.005639908
0.0988	0.005470718
0.09888	0.005526786
0.09896	0.00613071
0.09904	0.006636082
0.09912	0.007172502
0.0992	0.007980613
0.09928	0.008540502
0.09936	0.008715063
0.09944	0.008978715
0.09952	0.00975002
0.0996	0.009715593
0.09968	0.009644832
0.09976	0.01044159
0.09984	0.01187754
0.09992	0.01310913
0.1	0.01346907
0.10008	0.01355314
0.10016	0.01446824
0.10024	0.01557779
0.10032	0.01654995
0.1004	0.01755596
0.10048	0.01817083
0.10056	0.01817761
0.10064	0.0180901
0.10072	0.0180891
0.1008	0.01764864
0.10088	0.01813085
0.10096	0.01872523
0.10104	0.01912481
0.10112	0.01941965
0.1012	0.0193612
0.10128	0.01961845
0.10136	0.01997607
0.10144	0.02006597
0.10152	0.020122
0.1016	0.01969927
0.10168	0.02043768
0.10176	0.02110912
0.10184	0.02202643
0.10192	0.02252327
0.102	0.02262237
0.10208	0.02247839
0.10216	0.02290884
0.10224	0.02267676
0.10232	0.02232645
0.1024	0.02267176
0.10248	0.02298026
0.10256	0.02278134
0.10264	0.02208288
0.10272	0.02202926
0.1028	0.02192947
0.10288	0.02161599
0.10296	0.02161344
0.10304	0.02161444
0.10312	0.02181876
0.1032	0.0225321
0.10328	0.02225491
0.10336	0.02151197
0.10344	0.02108443
0.10352	0.02143084
0.1036	0.02180447
0.10368	0.02249094
0.10376	0.02276599
0.10384	0.02238493
0.10392	0.02147326
0.104	0.02075747
0.10408	0.02026916
0.10416	0.02000607
0.10424	0.01994965
0.10432	0.01964372
0.1044	0.01908179
0.10448	0.01774554
0.10456	0.01632015
0.10464	0.01575937
0.10472	0.01584177
0.1048	0.01564028
0.10488	0.01515484
0.10496	0.01448037
0.10504	0.01430519
0.10512	0.01442052
0.1052	0.01410407
0.10528	0.01316833
0.10536	0.01157755
0.10544	0.009985617
0.10552	0.009339451
0.1056	0.009348908
0.10568	0.009387608
0.10576	0.009792401
0.10584	0.01017266
0.10592	0.009940885
0.106	0.009115255
0.10608	0.007791061
0.10616	0.006871835
0.10624	0.006656872
0.10632	0.006952244
0.1064	0.0070112
0.10648	0.006382547
0.10656	0.005484707
0.10664	0.00473197
0.10672	0.004435144
0.1068	0.004192292
0.10688	0.003468264
0.10696	0.002760619
0.10704	0.002015042
0.10712	0.001677877
0.1072	0.001256633
0.10728	0.0008579717
0.10736	0.0004257567
0.10744	-0.0001074556
0.10752	-0.0009501548
0.1076	-0.001477356
0.10768	-0.001966277
0.10776	-0.002621434
0.10784	-0.002953468
0.10792	-0.003109122
0.108	-0.003492048
0.10808	-0.004055846
0.10816	-0.004269972
0.10824	-0.004129684
0.10832	-0.003586391
0.1084	-0.003871482
0.10848	-0.004319231
0.10856	-0.004410027
0.10864	-0.004028527
0.10872	-0.004000947
0.1088	-0.004514013
0.10888	-0.004780493
0.10896	-0.005224699
0.10904	-0.005797962
0.10912	-0.006764664
0.1092	-0.007944337
0.10928	-0.009104778
0.10936	-0.009851323
0.10944	-0.0105523
0.10952	-0.01119516
0.1096	-0.01191184
0.10968	-0.01239823
0.10976	-0.01248854
0.10984	-0.01263916
0.10992	-0.01278148
0.11	-0.01393664
0.11008	-0.01501032
0.11016	-0.01599406
0.11024	-0.0163608
0.11032	-0.0168603
0.1104	-0.0178092
0.11048	-0.01802706
0.11056	-0.01808714
0.11064	-0.0184114
0.11072	-0.01854655
0.1108	-0.01868054
0.11088	-0.01792165
0.11096	-0.01744052
0.11104	-0.01759669
0.11112	-0.01831051
0.1112	-0.01896431
0.11128	-0.0191601
0.11136	-0.01996347
0.11144	-0.02046912
0.11152	-0.02063566
0.1116	-0.02057934
0.11168	-0.02064293
0.11176	-0.02089656
0.11184	-0.02106357
0.11192	-0.02126597
0.112	-0.02184046
0.11208	-0.02188485
0.11216	-0.02182037
0.11224	-0.02184965
0.11232	-0.02230215
0.1124	-0.0221681
0.11248	-0.0215971
0.11256	-0.02122129
0.11264	-0.02125915
0.11272	-0.02103865
0.1128	-0.02048176
0.11288	-0.02047719
0.11296	-0.02055454
0.11304	-0.02025564
0.11312	-0.02027931
0.1132	-0.02051578
0.11328	-0.02028025
0.11336	-0.01964317
0.11344	-0.01923638
0.11352	-0.01871285
0.1136	-0.01791383
0.11368	-0.01745381
0.11376	-0.0169228
0.11384	-0.01640295
0.11392	-0.01604258
0.114	-0.01541097
0.11408	-0.01461817
0.11416	-0.01467026
0.11424	-0.01540293
0.11432	-0.01572548
0.1144	-0.01577015
0.11448	-0.01564349
0.11456	-0.01571809
0.11464	-0.01519092
0.11472	-0.01439388
0.1148	-0.01376084
0.11488	-0.01334801
0.11496	-0.012657
0.11504	-0.01168695
0.11512	-0.01138197
0.1152	-0.01117482
0.11528	-0.01089991
0.11536	-0.01097406
0.11544	-0.01082521
0.11552	-0.01045551
0.1156	-0.01043946
0.11568	-0.01125265
0.11576	-0.01147344
0.11584	-0.01086972
0.11592	-0.01007766
0.116	-0.009493926
0.11608	-0.00944392
0.11616	-0.009394241
0.11624	-0.00918951
0.11632	-0.008855525
0.1164	-0.00843346
0.11648	-0.008058116
0.11656	-0.008204953
0.11664	-0.008279013
0.11672	-0.008276872
0.1168	-0.007714156
0.11688	-0.007243299
0.11696	-0.006884377
0.11704	-0.006854974
0.11712	-0.00632471
0.1172	-0.005739521
0.11728	-0.006010652
0.11736	-0.005130096
0.11744	-0.004149311
0.11752	-0.003717145
0.1176	-0.003159898
0.11768	-0.003638476
0.11776	-0.003433516
0.11784	-0.002422685
0.11792	-0.002078202
0.118	-0.00164292
0.11808	-0.0008647032
0.11816	0.0001266698
0.11824	0.0009590734
0.11832	0.001227369
0.1184	0.001339631
0.11848	0.001555224
0.11856	0.001743722
0.11864	0.001637154
0.11872	0.001644456
0.1188	0.001806873
0.11888	0.002368378
0.11896	0.003031144
0.11904	0.003622754
0.11912	0.004055074
0.1192	0.004964853
0.11928	0.005586554
0.11936	0.005495416
0.11944	0.005734765
0.11952	0.006837062
0.1196	0.008149059
0.11968	0.009111073
0.11976	0.01044
0.11984	0.01141779
0.11992	0.0122125
0.12	0.01302751
0.12008	0.01322448
0.12016	0.01347877
0.12024	0.014198
0.12032	0.01506563
0.1204	0.015412
0.12048	0.01610944
0.12056	0.01721092
0.12064	0.01748604
0.12072	0.01753786
0.1208	0.01804387
0.12088	0.01866772
0.12096	0.01860176
0.12104	0.017897
0.12112	0.01769437
0.1212	0.01724245
0.12128	0.01701587
0.12136	0.0172252
0.12144	0.01721228
0.12152	0.01763739
0.1216	0.01805453
0.12168	0.01772522
0.12176	0.01794079
0.12184	0.01805883
0.12192	0.01818661
0.122	0.01838901
0.12208	0.01884201
0.12216	0.01927262
0.12224	0.01987484
0.12232	0.02048541
0.1224	0.0211603
0.12248	0.02134543
0.12256	0.02133888
0.12264	0.02142484
0.12272	0.02179406
0.1228	0.02179255
0.12288	0.02163617
0.12296	0.02233417
0.12304	0.0228915
0.12312	0.02276031
0.1232	0.0227189
0.12328	0.02273177
0.12336	0.02221
0.12344	0.02139401
0.12352	0.02097319
0.1236	0.02086795
0.12368	0.02079771
0.12376	0.02080036
0.12384	0.02060434
0.12392	0.02022808
0.124	0.01974803
0.12408	0.0198457
0.12416	0.01952461
0.12424	0.01907311
0.12432	0.01851261
0.1244	0.01817993
0.12448	0.01783487
0.12456	0.01721877
0.12464	0.01623731
0.12472	0.01496345
0.1248	0.01466255
0.12488	0.01433482
0.12496	0.01389489
0.12504	0.0135274
0.12512	0.01313035
0.1252	0.01245965
0.12528	0.01163565
0.12536	0.01092297
0.12544	0.0108439
0.12552	0.01118222
0.1256	0.01176474
0.12568	0.01180639
0.12576	0.01141068
0.12584	0.01082217
0.12592	0.01044527
0.126	0.00924195
0.12608	0.008392423
0.12616	0.007789488
0.12624	0.007280599
0.12632	0.00701952
0.1264	0.006469042
0.12648	0.006755193
0.12656	0.007027852
0.12664	0.006979697
0.12672	0.007301595
0.1268	0.007693575
0.12688	0.008009955
0.12696	0.008089004
0.12704	0.00784225
0.12712	0.007229785
0.1272	0.006227259
0.12728	0.005637129
0.12736	0.005674075
0.12744	0.005465102
0.12752	0.005762302
0.1276	0.006533412
0.12768	0.006634252
0.12776	0.006187213
0.12784	0.006147857
0.12792	0.005387344
0.128	0.004767756
0.12808	0.004634133
0.12816	0.003732431
0.12824	0.002900164
0.12832	0.002621414
0.1284	0.002470067
0.12848	0.002296037
0.12856	0.002011869
0.12864	0.002204936
0.12872	0.002395952
0.1288	0.002000879
0.12888	0.001267551
0.12896	0.0004699326
0.12904	-0.0005262559
0.12912	-0.001666821
0.1292	-0.002809637
0.12928	-0.004366886
0.12936	-0.00547509
0.12944	-0.005729553
0.12952	-0.005676726
0.1296	-0.006484095
0.12968	-0.007477743
0.12976	-0.008110777
0.12984	-0.008587576
0.12992	-0.009286334
0.13	-0.01021452
0.13008	-0.0114668
0.13016	-0.01211514
0.13024	-0.01287905
0.13032	-0.01353862
0.1304	-0.01401143
0.13048	-0.01364349
0.13056	-0.01321784
0.13064	-0.01335658
0.13072	-0.01399211
0.1308	-0.01437025
0.13088	-0.01366429
0.13096	-0.01353164
0.13104	-0.01369382
0.13112	-0.01373729
0.1312	-0.0141143
0.13128	-0.01464459
0.13136	-0.01538561
0.13144	-0.01629137
0.13152	-0.01694491
0.1316	-0.01716961
0.13168	-0.01725395
0.13176	-0.01694809
0.13184	-0.01706055
0.13192	-0.01756433
0.132	-0.01762712
0.13208	-0.0185245
0.13216	-0.01950831
0.13224	-0.01880579
0.13232	-0.01791023
0.1324	-0.01744385
0.13248	-0.01698021
0.13256	-0.01674136
0.13264	-0.01651537
0.13272	-0.01610124
0.1328	-0.01640131
0.13288	-0.01705034
0.13296	-0.01701003
0.13304	-0.01661118
0.13312	-0.01629031
0.1332	-0.01601999
0.13328	-0.01604459
0.13336	-0.01618185
0.13344	-0.01582307
0.13352	-0.01587982
0.1336	-0.01625974
0.13368	-0.01614251
0.13376	-0.01519734
0.13384	-0.01453082
0.13392	-0.01421436
0.134	-0.01354326
0.13408	-0.01344135
0.13416	-0.01395354
0.13424	-0.01347636
0.13432	-0.01320602
0.1344	-0.01307393
0.13448	-0.01289337
0.13456	-0.01214038
0.13464	-0.01186369
0.13472	-0.01143073
0.1348	-0.01104114
0.13488	-0.01118577
0.13496	-0.01144431
0.13504	-0.01094638
0.13512	-0.01022315
0.1352	-0.009948436
0.13528	-0.009859071
0.13536	-0.009665506
0.13544	-0.008654362
0.13552	-0.007922591
0.1356	-0.007381429
0.13568	-0.006428134
0.13576	-0.005368418
0.13584	-0.004483255
0.13592	-0.003621021
0.136	-0.002432256
0.13608	-0.001869251
0.13616	-0.002063642
0.13624	-0.002431923
0.13632	-0.003091676
0.1364	-0.003908803
0.13648	-0.004246774
0.13656	-0.003489604
0.13664	-0.00321958
0.13672	-0.002671147
0.1368	-0.002204649
0.13688	-0.001664102
0.13696	-0.000983691
0.13704	-0.0005995699
0.13712	-0.0004910161
0.1372	-0.0001804299
0.13728	-2.730023e-5
0.13736	-0.0001258277
0.13744	0.0001359612
0.13752	0.0008742674
0.1376	0.002057343
0.13768	0.002644158
0.13776	0.003590414
0.13784	0.004934233
0.13792	0.005420009
0.138	0.005529182
0.13808	0.005938153
0.13816	0.006351393
0.13824	0.006422782
0.13832	0.00643394
0.1384	0.006204214
0.13848	0.006576477
0.13856	0.007282737
0.13864	0.00790269
0.13872	0.008818843
0.1388	0.00949204
0.13888	0.01018656
0.13896	0.01051815
0.13904	0.01037324
0.13912	0.01076498
0.1392	0.0115644
0.13928	0.01196283
0.13936	0.01223319
0.13944	0.01283049
0.13952	0.0137445
0.1396	0.01382137
0.13968	0.0135311
0.13976	0.01329203
0.13984	0.0133471
0.13992	0.01338396
0.14	0.01357162
0.14008	0.01384807
0.14016	0.01426159
0.14024	0.01456402
0.14032	0.01491654
0.1404	0.01496246
0.14048	0.01551997
0.14056	0.01565585
0.14064	0.0163354
0.14072	0.01688267
0.1408	0.01715851
0.14088	0.01743656
0.14096	0.01777969
0.14104	0.01794984
0.14112	0.01789718
0.1412	0.01819235
0.14128	0.01869339
0.14136	0.01875819
0.14144	0.01864328
0.14152	0.018218
0.1416	0.01778207
0.14168	0.01724869
0.14176	0.01677138
0.14184	0.016772
0.14192	0.01700936
0.142	0.017373
0.14208	0.01720748
0.14216	0.0174108
0.14224	0.01822609
0.14232	0.01952164
0.1424	0.02037608
0.14248	0.02075083
0.14256	0.02071055
0.14264	0.02063805
0.14272	0.02061979
0.1428	0.0206951
0.14288	0.02027535
0.14296	0.01991781
0.14304	0.019594
0.14312	0.01947786
0.1432	0.01934457
0.14328	0.01882053
0.14336	0.01859041
0.14344	0.01903118
0.14352	0.01927792
0.1436	0.01938275
0.14368	0.01933995
0.14376	0.01910667
0.14384	0.01840254
0.14392	0.01744685
0.144	0.01777529
0.14408	0.01751174
0.14416	0.01651386
0.14424	0.0150893
0.14432	0.01395546
0.1444	0.01360992
0.14448	0.014087
0.14456	0.01478822
0.14464	0.01490869
0.14472	0.01406203
0.1448	0.01320433
0.14488	0.01271073
0.14496	0.01245947
0.14504	0.01240712
0.14512	0.01176645
0.1452	0.01141648
0.14528	0.01132962
0.14536	0.01119904
0.14544	0.01120571
0.14552	0.01034662
0.1456	0.009136274
0.14568	0.007970309
0.14576	0.007252765
0.14584	0.006185455
0.14592	0.004672254
0.146	0.003949608
0.14608	0.003122115
0.14616	0.002724412
0.14624	0.002715084
0.14632	0.002343524
0.1464	0.002135245
0.14648	0.00127199
0.14656	0.0009634442
0.14664	0.0007411034
0.14672	-0.0002058228
0.1468	-0.001223433
0.14688	-0.001664203
0.14696	-0.001829856
0.14704	-0.002667469
0.14712	-0.00402669
0.1472	-0.004723148
0.14728	-0.004935025
0.14736	-0.004607088
0.14744	-0.004234039
0.14752	-0.004296529
0.1476	-0.004623975
0.14768	-0.005537625
0.14776	-0.006464607
0.14784	-0.007030032
0.14792	-0.007586421
0.148	-0.007836823
0.14808	-0.008391538
0.14816	-0.008662125
0.14824	-0.009044627
0.14832	-0.008829871
0.1484	-0.009157968
0.14848	-0.0104604
0.14856	-0.01128678
0.14864	-0.01158713
0.14872	-0.01168775
0.1488	-0.01253503
0.14888	-0.01370608
0.14896	-0.01431257
0.14904	-0.0142111
0.14912	-0.01426225
0.1492	-0.01426764
0.14928	-0.01459873
0.14936	-0.01555183
0.14944	-0.01662704
0.14952	-0.01684646
0.1496	-0.01727344
0.14968	-0.01758772
0.14976	-0.01782048
0.14984	-0.01821681
0.14992	-0.01858608
0.15	-0.01869986
0.15008	-0.01889981
0.15016	-0.0192307
0.15024	-0.01925539
0.15032	-0.01940512
0.1504	-0.02023192
0.15048	-0.02070569
0.15056	-0.02088209
0.15064	-0.02176082
0.15072	-0.0223063
0.1508	-0.02210179
0.15088	-0.02174475
0.15096	-0.02209895
0.15104	-0.02171296
0.15112	-0.02142478
0.1512	-0.02165337
0.15128	-0.02192052
0.15136	-0.02231844
0.15144	-0.02256113
0.15152	-0.02253664
0.1516	-0.0222159
0.15168	-0.02228463
0.15176	-0.02270603
0.15184	-0.02289735
0.15192	-0.02326962
0.152	-0.02317357
0.15208	-0.02327736
0.15216	-0.02354008
0.15224	-0.02378436
0.15232	-0.02398444
0.1524	-0.02365893
0.15248	-0.02340336
0.15256	-0.02284433
0.15264	-0.02281815
0.15272	-0.02255483
0.1528	-0.02235907
0.15288	-0.0222154
0.15296	-0.02210482
0.15304	-0.0221453
0.15312	-0.02260918
0.1532	-0.02321765
0.15328	-0.02316983
0.15336	-0.02329994
0.15344	-0.0231888
0.15352	-0.02329345
0.1536	-0.02274138
0.15368	-0.02206744
0.15376	-0.02155698
0.15384	-0.02090152
0.15392	-0.02060379
0.154	-0.01988738
0.15408	-0.01970724
0.15416	-0.01978984
0.15424	-0.01975362
0.15432	-0.02017243
0.1544	-0.02016525
0.15448	-0.01990574
0.15456	-0.01921173
0.15464	-0.01813463
0.15472	-0.0169416
0.1548	-0.01618498
0.15488	-0.01598474
0.15496	-0.01596236
0.15504	-0.01565444
0.15512	-0.01527251
0.1552	-0.01494636
0.15528	-0.0149356
0.15536	-0.01454749
0.15544	-0.01383695
0.15552	-0.01325389
0.1556	-0.01248465
0.15568	-0.01172542
0.15576	-0.01134012
0.15584	-0.01099552
0.15592	-0.01067208
0.156	-0.0102164
0.15608	-0.009285715
0.15616	-0.008446959
0.15624	-0.007998397
0.15632	-0.007721275
0.1564	-0.007364517
0.15648	-0.007151506
0.15656	-0.007062491
0.15664	-0.006163369
0.15672	-0.005177386
0.1568	-0.003508781
0.15688	-0.002264916
0.15696	-0.001479609
0.15704	-0.0006721785
0.15712	0.000228822
0.1572	0.0004889091
0.15728	0.000279632
0.15736	0.0004721464
0.15744	0.001009339
0.15752	0.001328231
0.1576	0.001656309
0.15768	0.001754641
0.15776	0.001887197
0.15784	0.002945104
0.15792	0.004219042
0.158	0.005436569
0.15808	0.005365082
0.15816	0.005592015
0.15824	0.006286404
0.15832	0.006412551
0.1584	0.006673875
0.15848	0.007313037
0.15856	0.007657957
0.15864	0.007868031
0.15872	0.008589461
0.1588	0.00902969
0.15888	0.00918173
0.15896	0.009196837
0.15904	0.009938016
0.15912	0.01122259
0.1592	0.0115766
0.15928	0.0113962
0.15936	0.01135377
0.15944	0.01134825
0.15952	0.01133362
0.1596	0.01123287
0.15968	0.01104806
0.15976	0.01119186
0.15984	0.01211196
0.15992	0.01317376
0.16	0.01397384
0.16008	0.01489213
0.16016	0.01533841
0.16024	0.01584063
0.16032	0.0165088
0.1604	0.01637713
0.16048	0.01568571
0.16056	0.0150902
0.16064	0.01507537
0.16072	0.01576269
0.1608	0.01684228
0.16088	0.01797732
0.16096	0.01858616
0.16104	0.01852285
0.16112	0.0189057
0.1612	0.01935786
0.16128	0.01923674
0.16136	0.0189766
0.16144	0.01878037
0.16152	0.01926953
0.1616	0.01982275
0.16168	0.01951968
0.16176	0.01970204
0.16184	0.02060872
0.16192	0.02135902
0.162	0.02197215
0.16208	0.02204076
0.16216	0.02221718
0.16224	0.02187041
0.16232	0.02151614
0.1624	0.0208181
0.16248	0.02022355
0.16256	0.02010748
0.16264	0.01999211
0.16272	0.01944472
0.1628	0.01901489
0.16288	0.01892637
0.16296	0.0189422
0.16304	0.01936526
0.16312	0.01963563
0.1632	0.0189506
0.16328	0.0186016
0.16336	0.01904819
0.16344	0.02008798
0.16352	0.02074343
0.1636	0.02109156
0.16368	0.02156294
0.16376	0.02139055
0.16384	0.02113256
0.16392	0.02106577
0.164	0.02107806
0.16408	0.02081136
0.16416	0.02076779
0.16424	0.02075205
0.16432	0.02038978
0.1644	0.02019833
0.16448	0.02082838
0.16456	0.02147612
0.16464	0.02164922
0.16472	0.02114242
0.1648	0.02021526
0.16488	0.01939191
0.16496	0.01811877
0.16504	0.01729234
0.16512	0.01684462
0.1652	0.0161731
0.16528	0.01564265
0.16536	0.01516917
0.16544	0.01435609
0.16552	0.01317331
0.1656	0.01220502
0.16568	0.01135245
0.16576	0.01046112
0.16584	0.009305528
0.16592	0.008316564
0.166	0.007838994
0.16608	0.007399476
0.16616	0.00661912
0.16624	0.005435156
0.16632	0.004671357
0.1664	0.00400015
0.16648	0.002981221
0.16656	0.002094526
0.16664	0.00185203
0.16672	0.001487069
0.1668	0.0006918555
0.16688	6.336394e-5
0.16696	-0.0003545471
0.16704	-0.001703047
0.16712	-0.002843042
0.1672	-0.003297104
0.16728	-0.003369078
0.16736	-0.003748575
0.16744	-0.004586527
0.16752	-0.005407968
0.1676	-0.006133864
0.16768	-0.005998332
0.16776	-0.005515784
0.16784	-0.00489812
0.16792	-0.004975863
0.168	-0.005480221
0.16808	-0.005596627
0.16816	-0.005389306
0.16824	-0.005645525
0.16832	-0.006263467
0.1684	-0.006447874
0.16848	-0.006677182
0.16856	-0.00617496
0.16864	-0.006268681
0.16872	-0.006616929
0.1688	-0.006966061
0.16888	-0.007753243
0.16896	-0.007948299
0.16904	-0.008487452
0.16912	-0.009210569
0.1692	-0.009998273
0.16928	-0.009884387
0.16936	-0.00943324
0.16944	-0.009604178
0.16952	-0.009644593
0.1696	-0.01056218
0.16968	-0.01173709
0.16976	-0.01230473
0.16984	-0.01348197
0.16992	-0.01455661
0.17	-0.01598134
0.17008	-0.01684401
0.17016	-0.01746164
0.17024	-0.01726782
0.17032	-0.01725755
0.1704	-0.01757067
0.17048	-0.01769204
0.17056	-0.01770992
0.17064	-0.0177015
0.17072	-0.01784464
0.1708	-0.01866283
0.17088	-0.01971285
0.17096	-0.02015737
0.17104	-0.02033035
0.17112	-0.02057731
0.1712	-0.02024415
0.17128	-0.01993891
0.17136	-0.02003006
0.17144	-0.02013613
0.17152	-0.02030991
0.1716	-0.02087148
0.17168	-0.02065756
0.17176	-0.0203687
0.17184	-0.02000481
0.17192	-0.01966113
0.172	-0.02006806
0.17208	-0.02011674
0.17216	-0.02068351
0.17224	-0.021154
0.17232	-0.02239316
0.1724	-0.02352973
0.17248	-0.02415663
0.17256	-0.02419058
0.17264	-0.02348707
0.17272	-0.02288906
0.1728	-0.02269062
0.17288	-0.02267782
0.17296	-0.02251087
0.17304	-0.02233365
0.17312	-0.02203151
0.1732	-0.02143856
0.17328	-0.02081683
0.17336	-0.02069647
0.17344	-0.02063557
0.17352	-0.02081638
0.1736	-0.02135344
0.17368	-0.02166069
0.17376	-0.02165527
0.17384	-0.02151042
0.17392	-0.02130015
0.174	-0.02098225
0.17408	-0.02080681
0.17416	-0.02052756
0.17424	-0.02027219
0.17432	-0.02008051
0.1744	-0.02010074
0.17448	-0.01986796
0.17456	-0.01902772
0.17464	-0.01863279
0.17472	-0.0183738
0.1748	-0.01803984
0.17488	-0.01754833
0.17496	-0.0166188
0.17504	-0.01512994
0.17512	-0.0139061
0.1752	-0.01341813
0.17528	-0.01291165
0.17536	-0.0122772
0.17544	-0.01144508
0.17552	-0.01072152
0.1756	-0.01037537
0.17568	-0.009666197
0.17576	-0.009394768
0.17584	-0.009375665
0.17592	-0.009016606
0.176	-0.008671205
0.17608	-0.008238701
0.17616	-0.00754953
0.17624	-0.007058923
0.17632	-0.006271658
0.1764	-0.006423908
0.17648	-0.006775747
0.17656	-0.006568323
0.17664	-0.005620251
0.17672	-0.004165879
0.1768	-0.003419986
0.17688	-0.002356092
0.17696	-0.00196076
0.17704	-0.001594841
0.17712	-0.0009323121
0.1772	-0.0001639896
0.17728	0.0007087048
0.17736	0.001824446
0.17744	0.002861212
0.17752	0.003888814
0.1776	0.004409458
0.17768	0.004501089
0.17776	0.005056968
0.17784	0.006548265
0.17792	0.007743837
0.178	0.008128373
0.17808	0.008861864
0.17816	0.009349103
0.17824	0.009713927
0.17832	0.01017439
0.1784	0.01101916
0.17848	0.01162185
0.17856	0.01250451
0.17864	0.01351927
0.17872	0.01448957
0.1788	0.01518504
0.17888	0.01532339
0.17896	0.01519347
0.17904	0.01527731
0.17912	0.01577064
0.1792	0.01574769
0.17928	0.01569992
0.17936	0.01559251
0.17944	0.01665013
0.17952	0.01771766
0.1796	0.01836617
0.17968	0.01870468
0.17976	0.01895814
0.17984	0.01924196
0.17992	0.01973938
0.18	0.02046481
0.18008	0.0202003
0.18016	0.02020391
0.18024	0.02075711
0.18032	0.02080301
0.1804	0.0206249
0.18048	0.02024601
0.18056	0.02035598
0.18064	0.02096507
0.18072	0.02070154
0.1808	0.02054494
0.18088	0.02072028
0.18096	0.02108278
0.18104	0.02107965
0.18112	0.02151117
0.1812	0.02226655
0.18128	0.02310955
0.18136	0.02409437
0.18144	0.02423634
0.18152	0.0243287
0.1816	0.02494369
0.18168	0.02536009
0.18176	0.02554983
0.18184	0.02545064
0.18192	0.025599
0.182	0.02553891
0.18208	0.02567489
0.18216	0.02572112
0.18224	0.02548873
0.18232	0.02568145
0.1824	0.02578814
0.18248	0.02559036
0.18256	0.02568691
0.18264	0.02539524
0.18272	0.02496686
0.1828	0.02430839
0.18288	0.02322653
0.18296	0.02273867
0.18304	0.02209464
0.18312	0.02164468
0.1832	0.02149296
0.18328	0.02151314
0.18336	0.02180991
0.18344	0.02237262
0.18352	0.02280188
0.1836	0.0225644
0.18368	0.02216836
0.18376	0.02189876
0.18384	0.02067356
0.18392	0.01978406
0.184	0.01959203
0.18408	0.01878725
0.18416	0.0181508
0.18424	0.01795284
0.18432	0.01776927
0.1844	0.01726262
0.18448	0.016637
0.18456	0.01603256
0.18464	0.01511341
0.18472	0.01459309
0.1848	0.01436303
0.18488	0.013724
0.18496	0.01301765
0.18504	0.0123185
0.18512	0.01121868
0.1852	0.01023988
0.18528	0.009342209
0.18536	0.008847787
0.18544	0.008428932
0.18552	0.007395444
0.1856	0.006828194
0.18568	0.007147298
0.18576	0.006708425
0.18584	0.00565121
0.18592	0.004145939
0.186	0.002239578
0.18608	0.001054437
0.18616	0.00067959
0.18624	0.0002106091
0.18632	-0.0006132805
0.1864	-0.001071763
0.18648	-0.001403254
0.18656	-0.00183616
0.18664	-0.001423349
0.18672	-0.000762514
0.1868	-0.0002458444
0.18688	-0.0005375762
0.18696	-0.0008947088
0.18704	-0.001349839
0.18712	-0.002458825
0.1872	-0.003073181
0.18728	-0.003150599
0.18736	-0.003190289
0.18744	-0.003025675
0.18752	-0.002994884
0.1876	-0.003200409
0.18768	-0.003692389
0.18776	-0.004760329
0.18784	-0.005568889
0.18792	-0.006808147
0.188	-0.007783585
0.18808	-0.008132268
0.18816	-0.008331369
0.18824	-0.008641183
0.18832	-0.00871118
0.1884	-0.00926212
0.18848	-0.01008631
0.18856	-0.01079493
0.18864	-0.01173897
0.18872	-0.01272424
0.1888	-0.01423741
0.18888	-0.01560739
0.18896	-0.01607582
0.18904	-0.01667362
0.18912	-0.01720322
0.1892	-0.01762535
0.18928	-0.01753759
0.18936	-0.017553
0.18944	-0.01791393
0.18952	-0.01863185
0.1896	-0.01873629
0.18968	-0.01897568
0.18976	-0.01890764
0.18984	-0.01875303
0.18992	-0.01953678
0.19	-0.02026069
0.19008	-0.02092551
0.19016	-0.02173482
0.19024	-0.02220205
0.19032	-0.02241874
0.1904	-0.02240442
0.19048	-0.02244156
0.19056	-0.02279382
0.19064	-0.02276148
0.19072	-0.0224419
0.1908	-0.02250428
0.19088	-0.02281387
0.19096	-0.02281742
0.19104	-0.02307371
0.19112	-0.0231331
0.1912	-0.02313606
0.19128	-0.02348598
0.19136	-0.02358522
0.19144	-0.02401103
0.19152	-0.02385447
0.1916	-0.02451812
0.19168	-0.0250421
0.19176	-0.02528721
0.19184	-0.02516614
0.19192	-0.02551128
0.192	-0.02547094
0.19208	-0.02530701
0.19216	-0.02511312
0.19224	-0.02485316
0.19232	-0.02474385
0.1924	-0.02500499
0.19248	-0.02587655
0.19256	-0.02658956
0.19264	-0.02707172
0.19272	-0.02682811
0.1928	-0.02633522
0.19288	-0.02553415
0.19296	-0.02493474
0.19304	-0.02374877
0.19312	-0.02281097
0.1932	-0.02224303
0.19328	-0.02126072
0.19336	-0.02086598
0.19344	-0.02027279
0.19352	-0.01990664
0.1936	-0.01922304
0.19368	-0.0189968
0.19376	-0.01885767
0.19384	-0.01814582
0.19392	-0.0180545
0.194	-0.01793674
0.19408	-0.0172828
0.19416	-0.01696388
0.19424	-0.01663004
0.19432	-0.01695271
0.1944	-0.01707856
0.19448	-0.01717581
0.19456	-0.01686351
0.19464	-0.01592908
0.19472	-0.01500857
0.1948	-0.0140507
0.19488	-0.01305634
0.19496	-0.01280917
0.19504	-0.01274883
0.19512	-0.01266874
0.1952	-0.01255328
0.19528	-0.01193533
0.19536	-0.01163078
0.19544	-0.0109685
0.19552	-0.01087799
0.1956	-0.01066248
0.19568	-0.01042939
0.19576	-0.01008819
0.19584	-0.008953772
0.19592	-0.007737981
0.196	-0.006910088
0.19608	-0.006750886
0.19616	-0.006675413
0.19624	-0.006086296
0.19632	-0.005558992
0.1964	-0.005268673
0.19648	-0.004766111
0.19656	-0.004131568
0.19664	-0.003623568
0.19672	-0.003006814
0.1968	-0.001574167
0.19688	-0.0002292663
0.19696	0.001013172
0.19704	0.002996487
0.19712	0.003432581
0.1972	0.003348013
0.19728	0.003260712
0.19736	0.004097484
0.19744	0.005042924
0.19752	0.005852624
0.1976	0.007393817
0.19768	0.008263445
0.19776	0.008371817
0.19784	0.0082737
0.19792	0.008569204
0.198	0.009120151
0.19808	0.009384218
0.19816	0.009833057
0.19824	0.009598021
0.19832	0.009962416
0.1984	0.01032991
0.19848	0.01081843
0.19856	0.01126089
0.19864	0.01168529
0.19872	0.01204846
0.1988	0.01196537
0.19888	0.01142539
0.19896	0.01165914
0.19904	0.01212722
0.19912	0.01248066
0.1992	0.01323112
0.19928	0.01423143
0.19936	0.01533329
0.19944	0.01605853
0.19952	0.01675499
0.1996	0.01753201
0.19968	0.0186219
0.19976	0.01880956
0.19984	0.01867304
0.19992	0.01827004
0.2	0.01818733
0.20008	0.018821
0.20016	0.01956758
0.20024	0.0204143
0.20032	0.02010528
0.2004	0.01978619
0.20048	0.01965006
0.20056	0.01971344
0.20064	0.01984709
0.20072	0.02011062
0.2008	0.02046302
0.20088	0.02071378
0.20096	0.02080711
0.20104	0.02082922
0.20112	0.02048816
0.2012	0.0207356
0.20128	0.02021649
0.20136	0.01973402
0.20144	0.01967868
0.20152	0.01948009
0.2016	0.01925045
0.20168	0.01932712
0.20176	0.01950678
0.20184	0.01997413
0.20192	0.02069137
0.202	0.02059134
0.20208	0.02048373
0.20216	0.02040838
0.20224	0.0201372
0.20232	0.02059504
0.2024	0.02083657
0.20248	0.02042297
0.20256	0.02087476
0.20264	0.02081854
0.20272	0.02053107
0.2028	0.0199977
0.20288	0.01921747
0.20296	0.01922606
0.20304	0.01912513
0.20312	0.01873632
0.2032	0.01812245
0.20328	0.01739232
0.20336	0.01738209
0.20344	0.01779521
0.20352	0.0177953
0.2036	0.01736498
0.20368	0.01741582
0.20376	0.01709964
0.20384	0.01701964
0.20392	0.01681816
0.204	0.01683138
0.20408	0.01702591
0.20416	0.01660687
0.20424	0.01655858
0.20432	0.01546423
0.2044	0.01509678
0.20448	0.0154033
0.20456	0.01509717
0.20464	0.01486505
0.20472	0.0146192
0.2048	0.01411354
0.20488	0.0130859
0.20496	0.01262845
0.20504	0.01239751
0.20512	0.01195796
0.2052	0.01126071
0.20528	0.01028846
0.20536	0.009105153
0.20544	0.008084141
0.20552	0.007333323
0.2056	0.006958904
0.20568	0.006274087
0.20576	0.006329325
0.20584	0.006877147
0.20592	0.00728932
0.206	0.007501443
0.20608	0.00730493
0.20616	0.006838872
0.20624	0.006912175
0.20632	0.007247291
0.2064	0.006933912
0.20648	0.006947941
0.20656	0.006302447
0.20664	0.005329317
0.20672	0.004878747
0.2068	0.003991627
0.20688	0.003190939
0.20696	0.002320902
0.20704	0.0009652604
0.20712	0.0003392487
0.2072	0.0003746514
0.20728	-0.0004267543
0.20736	-0.001231498
0.20744	-0.00174054
0.20752	-0.002686454
0.2076	-0.003419147
0.20768	-0.004558994
0.20776	-0.006303683
0.20784	-0.007338898
0.20792	-0.008075507
0.208	-0.008724911
0.20808	-0.008698525
0.20816	-0.009271744
0.20824	-0.009625998
0.20832	-0.009096908
0.2084	-0.0091475
0.20848	-0.009535516
0.20856	-0.009747325
0.20864	-0.009819143
0.20872	-0.009678404
0.2088	-0.009330235
0.20888	-0.008844866
0.20896	-0.009375306
0.20904	-0.01058134
0.20912	-0.01211747
0.2092	-0.01287102
0.20928	-0.01331985
0.20936	-0.01326251
0.20944	-0.01420093
0.20952	-0.01510544
0.2096	-0.01490158
0.20968	-0.01535095
0.20976	-0.01562896
0.20984	-0.01604126
0.20992	-0.01599032
0.21	-0.01607024
0.21008	-0.01687046
0.21016	-0.01758236
0.21024	-0.0179238
0.21032	-0.01828098
0.2104	-0.01873514
0.21048	-0.0184011
0.21056	-0.01764708
0.21064	-0.01674178
0.21072	-0.01624828
0.2108	-0.01661586
0.21088	-0.01764522
0.21096	-0.01798118
0.21104	-0.0176763
0.21112	-0.0177207
0.2112	-0.01784557
0.21128	-0.01797469
0.21136	-0.01843253
0.21144	-0.01863
0.21152	-0.01886543
0.2116	-0.01861141
0.21168	-0.0183878
0.21176	-0.01869328
0.21184	-0.01912867
0.21192	-0.01881858
0.212	-0.01885405
0.21208	-0.01912814
0.21216	-0.01954777
0.21224	-0.0192185
0.21232	-0.01907592
0.2124	-0.01966854
0.21248	-0.01978985
0.21256	-0.01927275
0.21264	-0.01839144
0.21272	-0.01834684
0.2128	-0.01841379
0.21288	-0.01854326
0.21296	-0.01943269
0.21304	-0.01944437
0.21312	-0.01861265
0.2132	-0.01770946
0.21328	-0.01651653
0.21336	-0.01564967
0.21344	-0.01470411
0.21352	-0.01437224
0.2136	-0.01358716
0.21368	-0.01278244
0.21376	-0.01326006
0.21384	-0.01427431
0.21392	-0.01481282
0.214	-0.01490648
0.21408	-0.01480206
0.21416	-0.01465895
0.21424	-0.01468728
0.21432	-0.01430255
0.2144	-0.01379788
0.21448	-0.01358711
0.21456	-0.01348072
0.21464	-0.01370327
0.21472	-0.01424258
0.2148	-0.01476642
0.21488	-0.01477716
0.21496	-0.01489747
0.21504	-0.01510733
0.21512	-0.015346
0.2152	-0.01602305
0.21528	-0.01626232
0.21536	-0.0159114
0.21544	-0.01531637
0.21552	-0.01443072
0.2156	-0.01348976
0.21568	-0.01236979
0.21576	-0.01102959
0.21584	-0.01016289
0.21592	-0.009790685
0.216	-0.009125133
0.21608	-0.008823022
0.21616	-0.009360752
0.21624	-0.009653643
0.21632	-0.009818141
0.2164	-0.01011641
0.21648	-0.01023819
0.21656	-0.009460013
0.21664	-0.008137051
0.21672	-0.007237702
0.2168	-0.006588053
0.21688	-0.005866804
0.21696	-0.005447431
0.21704	-0.005011001
0.21712	-0.004237585
0.2172	-0.003350171
0.21728	-0.002435659
0.21736	-0.001572456
0.21744	-0.0007278647
0.21752	-0.0008044803
0.2176	-0.001415489
0.21768	-0.001974013
0.21776	-0.001540416
0.21784	-0.0009715143
0.21792	-0.0006226336
0.218	-5.172276e-5
0.21808	0.0001866802
0.21816	0.0006027967
0.21824	0.001596467
0.21832	0.002161343
0.2184	0.003005758
0.21848	0.003980212
0.21856	0.004559352
0.21864	0.004747102
0.21872	0.004403322
0.2188	0.004512795
0.21888	0.005396952
0.21896	0.007024279
0.21904	0.00812421
0.21912	0.009466046
0.2192	0.0109363
0.21928	0.01161551
0.21936	0.0119692
0.21944	0.01263866
0.21952	0.013752
0.2196	0.01523051
0.21968	0.01643999
0.21976	0.01600472
0.21984	0.01566357
0.21992	0.01619242
0.22	0.01634074
0.22008	0.01678818
0.22016	0.01710138
0.22024	0.0168673
0.22032	0.01651
0.2204	0.01673675
0.22048	0.01688889
0.22056	0.01732528
0.22064	0.0174327
0.22072	0.01776652
0.2208	0.01846662
0.22088	0.01951838
0.22096	0.02024427
0.22104	0.0205743
0.22112	0.02116474
0.2212	0.02109271
0.22128	0.02097617
0.22136	0.02077353
0.22144	0.02114196
0.22152	0.02157282
0.2216	0.02244468
0.22168	0.02260989
0.22176	0.02131629
0.22184	0.02052739
0.22192	0.01981922
0.222	0.01976131
0.22208	0.02046724
0.22216	0.02081621
0.22224	0.02106708
0.22232	0.02112411
0.2224	0.02088604
0.22248	0.02098856
0.22256	0.02118916
0.22264	0.0216682
0.22272	0.02219294
0.2228	0.02263981
0.22288	0.02261958
0.22296	0.02263389
0.22304	0.02273862
0.22312	0.02271137
0.2232	0.02242353
0.22328	0.02183115
0.22336	0.02098451
0.22344	0.02122754
0.22352	0.02128965
0.2236	0.02137005
0.22368	0.02056165
0.22376	0.02004587
0.22384	0.02027767
0.22392	0.02006214
0.224	0.01971871
0.22408	0.01978122
0.22416	0.01955669
0.22424	0.01883036
0.22432	0.01817683
0.2244	0.01764052
0.22448	0.01735977
0.22456	0.01731154
0.22464	0.01724293
0.22472	0.01729354
0.2248	0.01705847
0.22488	0.01640492
0.22496	0.01597634
0.22504	0.01612302
0.22512	0.01559782
0.2252	0.01527878
0.22528	0.01546616
0.22536	0.01511562
0.22544	0.01442062
0.22552	0.01451723
0.2256	0.01488406
0.22568	0.0144034
0.22576	0.01376882
0.22584	0.01370663
0.22592	0.01365811
0.226	0.01356765
0.22608	0.01344417
0.22616	0.01333579
0.22624	0.01366956
0.22632	0.01319462
0.2264	0.01217273
0.22648	0.01092646
0.22656	0.0102666
0.22664	0.009462466
0.22672	0.008869275
0.2268	0.008677937
0.22688	0.008465076
0.22696	0.008411181
0.22704	0.008122886
0.22712	0.007453044
0.2272	0.006254108
0.22728	0.005237808
0.22736	0.00497358
0.22744	0.005090198
0.22752	0.005343585
0.2276	0.004860717
0.22768	0.004281684
0.22776	0.003553723
0.22784	0.00237676
0.22792	0.001318524
0.228	0.0006105458
0.22808	-0.0002168279
0.22816	-0.0007914645
0.22824	-0.001592643
0.22832	-0.002874911
0.2284	-0.004655909
0.22848	-0.006335931
0.22856	-0.007302962
0.22864	-0.007947873
0.22872	-0.008902202
0.2288	-0.009673237
0.22888	-0.01072734
0.22896	-0.01108785
0.22904	-0.01134144
0.22912	-0.01147408
0.2292	-0.01256387
0.22928	-0.01367826
0.22936	-0.01442672
0.22944	-0.01550104
0.22952	-0.0162082
0.2296	-0.01636106
0.22968	-0.01620336
0.22976	-0.01658237
0.22984	-0.01706468
0.22992	-0.017436
0.23	-0.01821799
0.23008	-0.01928023
0.23016	-0.01947407
0.23024	-0.01984305
0.23032	-0.0203717
0.2304	-0.02068733
0.23048	-0.02029363
0.23056	-0.01945636
0.23064	-0.01893778
0.23072	-0.01884963
0.2308	-0.0192502
0.23088	-0.01980579
0.23096	-0.02078163
0.23104	-0.02179086
0.23112	-0.02258724
0.2312	-0.02296725
0.23128	-0.02289815
0.23136	-0.02215626
0.23144	-0.02120643
0.23152	-0.02136607
0.2316	-0.02162468
0.23168	-0.02116293
0.23176	-0.02086301
0.23184	-0.0212153
0.23192	-0.02153808
0.232	-0.02112024
0.23208	-0.02036909
0.23216	-0.01977369
0.23224	-0.0192438
0.23232	-0.01866239
0.2324	-0.01950587
0.23248	-0.02024231
0.23256	-0.02081513
0.23264	-0.02209323
0.23272	-0.02231588
0.2328	-0.02211429
0.23288	-0.02210596
0.23296	-0.02227865
0.23304	-0.02163268
0.23312	-0.02062786
0.2332	-0.01965111
0.23328	-0.01863269
0.23336	-0.01794873
0.23344	-0.01827578
0.23352	-0.01847704
0.2336	-0.0190904
0.23368	-0.01900566
0.23376	-0.01897021
0.23384	-0.01923383
0.23392	-0.01932128
0.234	-0.0193739
0.23408	-0.01897183
0.23416	-0.01913785
0.23424	-0.01878543
0.23432	-0.01838373
0.2344	-0.01801432
0.23448	-0.01763719
0.23456	-0.017729
0.23464	-0.01806748
0.23472	-0.01825543
0.2348	-0.0172755
0.23488	-0.01606423
0.23496	-0.01576925
0.23504	-0.01505497
0.23512	-0.01410567
0.2352	-0.01346974
0.23528	-0.01336646
0.23536	-0.01339224
0.23544	-0.01362241
0.23552	-0.01410598
0.2356	-0.01401234
0.23568	-0.01358943
0.23576	-0.01308973
0.23584	-0.01231078
0.23592	-0.01156072
0.236	-0.01043462
0.23608	-0.009627161
0.23616	-0.008985114
0.23624	-0.008155955
0.23632	-0.007598673
0.2364	-0.007367737
0.23648	-0.006939164
0.23656	-0.007269913
0.23664	-0.007897522
0.23672	-0.007785213
0.2368	-0.007112497
0.23688	-0.006448309
0.23696	-0.005980612
0.23704	-0.004772305
0.23712	-0.003743797
0.2372	-0.002658227
0.23728	-0.002137361
0.23736	-0.001764781
0.23744	-0.001632947
0.23752	-0.00152979
0.2376	-0.0009021684
0.23768	-0.0006674628
0.23776	-0.0009911008
0.23784	-0.001485445
0.23792	-0.001383278
0.238	-0.0005369137
0.23808	0.0004909977
0.23816	0.001068224
0.23824	0.00185999
0.23832	0.003108204
0.2384	0.003791049
0.23848	0.004961908
0.23856	0.005914298
0.23864	0.006638465
0.23872	0.007174904
0.2388	0.007382726
0.23888	0.008354883
0.23896	0.009621049
0.23904	0.01017548
0.23912	0.01019933
0.2392	0.01066261
0.23928	0.01129363
0.23936	0.01204377
0.23944	0.01269521
0.23952	0.0122832
0.2396	0.01205637
0.23968	0.01224758
0.23976	0.01202251
0.23984	0.01220132
0.23992	0.01165574
0.24	0.01156182
0.24008	0.01159966
0.24016	0.01234934
0.24024	0.01329454
0.24032	0.01390638
0.2404	0.01411256
0.24048	0.01414297
0.24056	0.01459103
0.24064	0.01523708
0.24072	0.01643733
0.2408	0.01724426
0.24088	0.01795493
0.24096	0.0185425
0.24104	0.01934057
0.24112	0.01932972
0.2412	0.01951217
0.24128	0.01994797
0.24136	0.02056083
0.24144	0.02139133
0.24152	0.02176941
0.2416	0.02255932
0.24168	0.02302124
0.24176	0.023701
0.24184	0.02350493
0.24192	0.02340113
0.242	0.02400377
0.24208	0.02398294
0.24216	0.02411107
0.24224	0.023612
0.24232	0.02290399
0.2424	0.02280825
0.24248	0.02254401
0.24256	0.02215685
0.24264	0.02253833
0.24272	0.0231472
0.2428	0.02402576
0.24288	0.02452146
0.24296	0.02428395
0.24304	0.02374843
0.24312	0.02350749
0.2432	0.02348812
0.24328	0.02372383
0.24336	0.02338014
0.24344	0.02252772
0.24352	0.02177135
0.2436	0.02070129
0.24368	0.02036543
0.24376	0.02023923
0.24384	0.0198827
0.24392	0.01954174
0.244	0.01927803
0.24408	0.01918769
0.24416	0.01881316
0.24424	0.01784765
0.24432	0.01749211
0.2444	0.01754507
0.24448	0.01831791
0.24456	0.01850462
0.24464	0.01846443
0.24472	0.01810328
0.2448	0.01701422
0.24488	0.01526429
0.24496	0.01353698
0.24504	0.01222994
0.24512	0.01221684
0.2452	0.01185065
0.24528	0.01101558
0.24536	0.01063239
0.24544	0.01047533
0.24552	0.01088519
0.2456	0.01050016
0.24568	0.009521875
0.24576	0.008350549
0.24584	0.007888802
0.24592	0.007233608
0.246	0.006767431
0.24608	0.006831495
0.24616	0.006185992
0.24624	0.0059505
0.24632	0.005601002
0.2464	0.004870299
0.24648	0.003716101
0.24656	0.003235618
0.24664	0.002348623
0.24672	0.001348643
0.2468	0.0003229573
0.24688	-0.000359252
0.24696	-0.001040266
0.24704	-0.0009597991
0.24712	-0.0006584415
0.2472	-0.0007983632
0.24728	-0.0005044539
0.24736	-0.001545975
0.24744	-0.002796796
0.24752	-0.002743684
0.2476	-0.002404189
0.24768	-0.002615376
0.24776	-0.002559265
0.24784	-0.002619876
0.24792	-0.002840284
0.248	-0.003307935
0.24808	-0.003311825
0.24816	-0.002989954
0.24824	-0.003137495
0.24832	-0.003595158
0.2484	-0.004556249
0.24848	-0.004690645
0.24856	-0.00444756
0.24864	-0.004607451
0.24872	-0.00538808
0.2488	-0.005797961
0.24888	-0.006272207
0.24896	-0.006973553
0.24904	-0.007872111
0.24912	-0.008553584
0.2492	-0.009081843
0.24928	-0.009919107
0.24936	-0.01009534
0.24944	-0.01022525
0.24952	-0.009999849
0.2496	-0.01017248
0.24968	-0.01058099
0.24976	-0.01091028
0.24984	-0.01089805
0.24992	-0.01027654
0.25	-0.009610216
0.25008	-0.009685569
0.25016	-0.01034467
0.25024	-0.01173121
0.25032	-0.01208952
0.2504	-0.01177577
0.25048	-0.01255035
0.25056	-0.0143533
0.25064	-0.01594656
0.25072	-0.01683322
0.2508	-0.0175346
0.25088	-0.01792536
0.25096	-0.01788057
0.25104	-0.01776229
0.25112	-0.01755174
0.2512	-0.01721063
0.25128	-0.01757593
0.25136	-0.01816314
0.25144	-0.01852025
0.25152	-0.01874023
0.2516	-0.01984002
0.25168	-0.02032664
0.25176	-0.02049294
0.25184	-0.02039687
0.25192	-0.01978215
0.252	-0.01905484
0.25208	-0.0182536
0.25216	-0.01784238
0.25224	-0.01764987
0.25232	-0.01795387
0.2524	-0.01809085
0.25248	-0.01805463
0.25256	-0.01802796
0.25264	-0.01839093
0.25272	-0.01864494
0.2528	-0.01863718
0.25288	-0.0185368
0.25296	-0.01863207
0.25304	-0.01877029
0.25312	-0.0187168
0.2532	-0.01867732
0.25328	-0.01867642
0.25336	-0.01837248
0.25344	-0.01782085
0.25352	-0.01752736
0.2536	-0.0175296
0.25368	-0.0178845
0.25376	-0.01853209
0.25384	-0.01845208
0.25392	-0.01726341
0.254	-0.01569576
0.25408	-0.01456146
0.25416	-0.01390143
0.25424	-0.01324514
0.25432	-0.01314204
0.2544	-0.01412742
0.25448	-0.01517724
0.25456	-0.01610062
0.25464	-0.01642623
0.25472	-0.01620115
0.2548	-0.01549638
0.25488	-0.01439648
0.25496	-0.01415282
0.25504	-0.01435599
0.25512	-0.01414756
0.2552	-0.01417498
0.25528	-0.01382885
0.25536	-0.01264307
0.25544	-0.01188321
0.25552	-0.01151831
0.2556	-0.01171171
0.25568	-0.01131395
0.25576	-0.01084388
0.25584	-0.009594882
0.25592	-0.007676127
0.256	-0.006661431
0.25608	-0.005874171
0.25616	-0.004991119
0.25624	-0.004090912
0.25632	-0.003377313
0.2564	-0.003219836
0.25648	-0.003012985
0.25656	-0.002614542
0.25664	-0.002931638
0.25672	-0.002843834
0.2568	-0.002617436
0.25688	-0.002413261
0.25696	-0.001880435
0.25704	-0.0008211327
0.25712	0.0006778793
0.2572	0.001633212
0.25728	0.002683821
0.25736	0.003801525
0.25744	0.004109398
0.25752	0.003442157
0.2576	0.002835956
0.25768	0.002843883
0.25776	0.003292304
0.25784	0.00344936
0.25792	0.003993695
0.258	0.005112882
0.25808	0.006831562
0.25816	0.008452589
0.25824	0.008850676
0.25832	0.008610637
0.2584	0.008511629
0.25848	0.008334232
0.25856	0.008813035
0.25864	0.00945536
0.25872	0.01044227
0.2588	0.01124123
0.25888	0.01093681
0.25896	0.01013454
0.25904	0.009505015
0.25912	0.01046463
0.2592	0.01137037
0.25928	0.01237958
0.25936	0.01365096
0.25944	0.01431109
0.25952	0.0148227
0.2596	0.015221
0.25968	0.01602307
0.25976	0.01698619
0.25984	0.01737177
0.25992	0.01770439
0.26	0.01841995
0.26008	0.01901705
0.26016	0.0193447
0.26024	0.0196312
0.26032	0.01944736
0.2604	0.01881459
0.26048	0.01781536
0.26056	0.01797846
0.26064	0.01872171
0.26072	0.01947023
0.2608	0.02041133
0.26088	0.02070467
0.26096	0.02024635
0.26104	0.01984458
0.26112	0.01947077
0.2612	0.019778
0.26128	0.02071966
0.26136	0.02113759
0.26144	0.0211845
0.26152	0.02140561
0.2616	0.02097645
0.26168	0.02035884
0.26176	0.02078489
0.26184	0.02099171
0.26192	0.01992268
0.262	0.01950593
0.26208	0.01905037
0.26216	0.01856016
0.26224	0.01805428
0.26232	0.01841591
0.2624	0.01895042
0.26248	0.01945286
0.26256	0.02017803
0.26264	0.02014744
0.26272	0.01923185
0.2628	0.01891162
0.26288	0.01902161
0.26296	0.01882588
0.26304	0.01895656
0.26312	0.01872768
0.2632	0.01903458
0.26328	0.01903705
0.26336	0.0182474
0.26344	0.01735382
0.26352	0.01656892
0.2636	0.01611135
0.26368	0.01566213
0.26376	0.01498252
0.26384	0.01446737
0.26392	0.01402512
0.264	0.01406387
0.26408	0.0143647
0.26416	0.01362173
0.26424	0.01198411
0.26432	0.01122986
0.2644	0.01061585
0.26448	0.01013856
0.26456	0.009633624
0.26464	0.009793926
0.26472	0.01006304
0.2648	0.009807433
0.26488	0.009700991
0.26496	0.009234828
0.26504	0.009042684
0.26512	0.009087469
0.2652	0.009316429
0.26528	0.009714778
0.26536	0.009645452
0.26544	0.008637375
0.26552	0.007133568
0.2656	0.006873033
0.26568	0.007316983
0.26576	0.007057654
0.26584	0.006369056
0.26592	0.006304993
0.266	0.006057575
0.26608	0.005499279
0.26616	0.004931456
0.26624	0.004706852
0.26632	0.004370755
0.2664	0.004177934
0.26648	0.003598423
0.26656	0.002341771
0.26664	0.001704365
0.26672	0.001760323
0.2668	0.001886998
0.26688	0.00131952
0.26696	0.0002048675
0.26704	-0.0002260499
0.26712	-0.0003445164
0.2672	-0.0004533169
0.26728	-0.0002325057
0.26736	-0.000249089
0.26744	-0.0006474538
0.26752	-0.00109689
0.2676	-0.001666778
0.26768	-0.002541787
0.26776	-0.003131664
0.26784	-0.003093414
0.26792	-0.003375039
0.268	-0.004093491
0.26808	-0.0047437
0.26816	-0.005717597
0.26824	-0.006505724
0.26832	-0.00694324
0.2684	-0.006933934
0.26848	-0.00731835
0.26856	-0.007818861
0.26864	-0.008333023
0.26872	-0.008578131
0.2688	-0.009110637
0.26888	-0.01012984
0.26896	-0.01122746
0.26904	-0.01159151
0.26912	-0.01200299
0.2692	-0.01273447
0.26928	-0.01308248
0.26936	-0.01338727
0.26944	-0.01365419
0.26952	-0.01386172
0.2696	-0.01339303
0.26968	-0.01285546
0.26976	-0.01280231
0.26984	-0.01278267
0.26992	-0.01269005
0.27	-0.01337176
0.27008	-0.01424857
0.27016	-0.01513422
0.27024	-0.01639845
0.27032	-0.01825395
0.2704	-0.01948274
0.27048	-0.02051474
0.27056	-0.02067948
0.27064	-0.02012577
0.27072	-0.01970245
0.2708	-0.01975689
0.27088	-0.01995354
0.27096	-0.02051652
0.27104	-0.02086772
0.27112	-0.02077626
0.2712	-0.02081696
0.27128	-0.02026781
0.27136	-0.01988358
0.27144	-0.01943095
0.27152	-0.01885853
0.2716	-0.01877504
0.27168	-0.02017223
0.27176	-0.02158288
0.27184	-0.02205152
0.27192	-0.02182478
0.272	-0.02187083
0.27208	-0.02163091
0.27216	-0.02183021
0.27224	-0.02220931
0.27232	-0.02249642
0.2724	-0.02294721
0.27248	-0.02321366
0.27256	-0.02277412
0.27264	-0.02190727
0.27272	-0.02120085
0.2728	-0.02053992
0.27288	-0.02044065
0.27296	-0.02035322
0.27304	-0.02056094
0.27312	-0.02052753
0.2732	-0.02050365
0.27328	-0.02090027
0.27336	-0.02152974
0.27344	-0.02149226
0.27352	-0.02064306
0.2736	-0.02029662
0.27368	-0.02058711
0.27376	-0.02024872
0.27384	-0.019801
0.27392	-0.0201707
0.274	-0.01943442
0.27408	-0.01800277
0.27416	-0.01738668
0.27424	-0.01706363
0.27432	-0.01701592
0.2744	-0.01686347
0.27448	-0.01645506
0.27456	-0.01640223
0.27464	-0.01607517
0.27472	-0.01585852
0.2748	-0.01566819
0.27488	-0.01507344
0.27496	-0.0136611
0.27504	-0.01236311
0.27512	-0.01216673
0.2752	-0.01211675
0.27528	-0.01217901
0.27536	-0.01258508
0.27544	-0.01246452
0.27552	-0.01251834
0.2756	-0.01287034
0.27568	-0.01221004
0.27576	-0.01073943
0.27584	-0.009648025
0.27592	-0.008344174
0.276	-0.006924509
0.27608	-0.005995268
0.27616	-0.005980488
0.27624	-0.005358574
0.27632	-0.004752239
0.2764	-0.004567185
0.27648	-0.00386505
0.27656	-0.004025118
0.27664	-0.003363822
0.27672	-0.002538646
0.2768	-0.001330387
0.27688	-0.0002209078
0.27696	0.0006557018
0.27704	0.0009093247
0.27712	0.0007459638
0.2772	0.0005757176
0.27728	0.0006891129
0.27736	0.0003538205
0.27744	0.0001320869
0.27752	0.0004804606
0.2776	0.0007570333
0.27768	0.001325087
0.27776	0.001325956
0.27784	0.001085926
0.27792	0.001587112
0.278	0.002467895
0.27808	0.003283101
0.27816	0.003349381
0.27824	0.003360866
0.27832	0.004031559
0.2784	0.005222989
0.27848	0.006364305
0.27856	0.006708918
0.27864	0.007228845
0.27872	0.008756349
0.2788	0.009954045
0.27888	0.0109005
0.27896	0.01107268
0.27904	0.01086996
0.27912	0.0112378
0.2792	0.01133882
0.27928	0.01092135
0.27936	0.01094795
0.27944	0.01158465
0.27952	0.0124345
0.2796	0.01292005
0.27968	0.01396291
0.27976	0.01430589
0.27984	0.01438072
0.27992	0.01554117
0.28	0.01619911
0.28008	0.01677357
0.28016	0.01810157
0.28024	0.01932497
0.28032	0.02016132
0.2804	0.02047635
0.28048	0.02059227
0.28056	0.02068463
0.28064	0.02099368
0.28072	0.02124664
0.2808	0.02074629
0.28088	0.01968521
0.28096	0.01873942
0.28104	0.01948354
0.28112	0.02054768
0.2812	0.02158305
0.28128	0.0228526
0.28136	0.02391658
0.28144	0.02366661
0.28152	0.02359121
0.2816	0.02392767
0.28168	0.02430077
0.28176	0.02471874
0.28184	0.02500118
0.28192	0.02472607
0.282	0.02429311
0.28208	0.02409569
0.28216	0.02429322
0.28224	0.02464005
0.28232	0.02508008
0.2824	0.02539173
0.28248	0.02534145
0.28256	0.02453384
0.28264	0.02385154
0.28272	0.02354269
0.2828	0.02308435
0.28288	0.02265703
0.28296	0.02229957
0.28304	0.02190453
0.28312	0.02153409
0.2832	0.02093046
0.28328	0.02017741
0.28336	0.01929934
0.28344	0.01853101
0.28352	0.01780685
0.2836	0.01696578
0.28368	0.0163575
0.28376	0.01603504
0.28384	0.01516341
0.28392	0.01480116
0.284	0.01505137
0.28408	0.0153347
0.28416	0.01505872
0.28424	0.01475986
0.28432	0.01372885
0.2844	0.0127535
0.28448	0.01215329
0.28456	0.01233731
0.28464	0.0127933
0.28472	0.01249611
0.2848	0.01189969
0.28488	0.01173342
0.28496	0.01185343
0.28504	0.01150181
0.28512	0.01122024
0.2852	0.01150566
0.28528	0.01147341
0.28536	0.01078899
0.28544	0.009897364
0.28552	0.009155387
0.2856	0.008683991
0.28568	0.008272463
0.28576	0.007738083
0.28584	0.007001381
0.28592	0.006744397
0.286	0.006423327
0.28608	0.005621914
0.28616	0.005611483
0.28624	0.005806317
0.28632	0.005409799
0.2864	0.005102367
0.28648	0.005071933
0.28656	0.004931127
0.28664	0.005276234
0.28672	0.005193148
0.2868	0.004552259
0.28688	0.003926992
0.28696	0.003049083
0.28704	0.001631835
0.28712	0.0005969117
0.2872	2.499146e-5
0.28728	0.0001764953
0.28736	0.0002339914
0.28744	-8.21903e-7
0.28752	2.053422e-5
0.2876	-0.0006384539
0.28768	-0.001614872
0.28776	-0.00211348
0.28784	-0.002092115
0.28792	-0.002273679
0.288	-0.002385358
0.28808	-0.002770441
0.28816	-0.002997682
0.28824	-0.003673973
0.28832	-0.00431866
0.2884	-0.004409647
0.28848	-0.003870707
0.28856	-0.003885842
0.28864	-0.004639747
0.28872	-0.005561064
0.2888	-0.006583726
0.28888	-0.007036753
0.28896	-0.007265385
0.28904	-0.007489359
0.28912	-0.007769329
0.2892	-0.008501596
0.28928	-0.009588301
0.28936	-0.01016543
0.28944	-0.0102409
0.28952	-0.01086549
0.2896	-0.01158713
0.28968	-0.01195271
0.28976	-0.01240067
0.28984	-0.01300116
0.28992	-0.01381769
0.29	-0.01429915
0.29008	-0.01497126
0.29016	-0.01543285
0.29024	-0.01586925
0.29032	-0.01671432
0.2904	-0.01690254
0.29048	-0.01683232
0.29056	-0.01676689
0.29064	-0.01674774
0.29072	-0.01729711
0.2908	-0.01824792
0.29088	-0.01952124
0.29096	-0.0201597
0.29104	-0.02066956
0.29112	-0.02109689
0.2912	-0.020645
0.29128	-0.01972416
0.29136	-0.01900424
0.29144	-0.0186037
0.29152	-0.01888467
0.2916	-0.01938307
0.29168	-0.01940615
0.29176	-0.0189269
0.29184	-0.01850758
0.29192	-0.0182494
0.292	-0.01797794
0.29208	-0.01834881
0.29216	-0.01845855
0.29224	-0.01786279
0.29232	-0.01725379
0.2924	-0.01730263
0.29248	-0.01778399
0.29256	-0.01798773
0.29264	-0.01792702
0.29272	-0.01753678
0.2928	-0.01732733
0.29288	-0.01757416
0.29296	-0.01765381
0.29304	-0.01759729
0.29312	-0.01815986
0.2932	-0.01880939
0.29328	-0.01865681
0.29336	-0.01812979
0.29344	-0.017863
0.29352	-0.0171832
0.2936	-0.01627227
0.29368	-0.01630199
0.29376	-0.01663982
0.29384	-0.01641891
0.29392	-0.01580993
0.294	-0.01554678
0.29408	-0.01515729
0.29416	-0.01458355
0.29424	-0.01400745
0.29432	-0.01315169
0.2944	-0.01328606
0.29448	-0.01326464
0.29456	-0.01266331
0.29464	-0.01258868
0.29472	-0.01267095
0.2948	-0.01193254
0.29488	-0.01195044
0.29496	-0.01228941
0.29504	-0.0122198
0.29512	-0.01189153
0.2952	-0.01178976
0.29528	-0.01150642
0.29536	-0.01127823
0.29544	-0.0111455
0.29552	-0.01111525
0.2956	-0.01063613
0.29568	-0.009234027
0.29576	-0.007928601
0.29584	-0.006404472
0.29592	-0.004984033
0.296	-0.003902649
0.29608	-0.003874602
0.29616	-0.003864735
0.29624	-0.00333317
0.29632	-0.003533835
0.2964	-0.004457047
0.29648	-0.004592873
0.29656	-0.004758439
0.29664	-0.004333855
0.29672	-0.003648897
0.2968	-0.002940127
0.29688	-0.00226795
0.29696	-0.002195892
0.29704	-0.001692276
0.29712	-0.0006760319
0.2972	0.0004093199
0.29728	0.0007431339
0.29736	0.001111801
0.29744	0.001206506
0.29752	0.001595765
0.2976	0.001494625
0.29768	0.001031466
0.29776	0.001057888
0.29784	0.00130389
0.29792	0.002144306
0.298	0.003197085
0.29808	0.00367776
0.29816	0.004095491
0.29824	0.004820107
0.29832	0.005388855
0.2984	0.005504885
0.29848	0.006198037
0.29856	0.007002288
0.29864	0.007761776
0.29872	0.008372616
0.2988	0.008370756
0.29888	0.008158495
0.29896	0.008503978
0.29904	0.00912694
0.29912	0.009071886
0.2992	0.008711936
0.29928	0.008655909
0.29936	0.008900793
0.29944	0.009281579
0.29952	0.01016101
0.2996	0.01133507
0.29968	0.0122963
0.29976	0.01301534
0.29984	0.01332655
0.29992	0.01314722
0.3	0.01282368
0.30008	0.01218421
0.30016	0.01177107
0.30024	0.01152305
0.30032	0.01174664
0.3004	0.01239206
0.30048	0.01329843
0.30056	0.01398791
0.30064	0.0143605
0.30072	0.01426714
0.3008	0.01458075
0.30088	0.01410826
0.30096	0.01430245
0.30104	0.01478187
0.30112	0.01481854
0.3012	0.01489144
0.30128	0.01563648
0.30136	0.01663178
0.30144	0.01680467
0.30152	0.01678636
0.3016	0.01783177
0.30168	0.01886984
0.30176	0.01887664
0.30184	0.01872709
0.30192	0.01882449
0.302	0.01836661
0.30208	0.01797063
0.30216	0.01849771
0.30224	0.01943172
0.30232	0.01951139
0.3024	0.01937509
0.30248	0.01938583
0.30256	0.01896276
0.30264	0.01877374
0.30272	0.01883
0.3028	0.01901112
0.30288	0.01968463
0.30296	0.02008488
0.30304	0.0194197
0.30312	0.01860981
0.3032	0.01851831
0.30328	0.01854813
0.30336	0.01797687
0.30344	0.01679805
0.30352	0.01597888
0.3036	0.01529416
0.30368	0.01491121
0.30376	0.01446221
0.30384	0.01409346
0.30392	0.01340149
0.304	0.0134481
0.30408	0.01367991
0.30416	0.01361374
0.30424	0.01298765
0.30432	0.01284356
0.3044	0.01242062
0.30448	0.01160966
0.30456	0.01082154
0.30464	0.009981553
0.30472	0.009086733
0.3048	0.008416438
0.30488	0.007650096
0.30496	0.007121499
0.30504	0.006286353
0.30512	0.005932523
0.3052	0.00622693
0.30528	0.006410332
0.30536	0.006730598
0.30544	0.00727816
0.30552	0.00764626
0.3056	0.007469683
0.30568	0.007262001
0.30576	0.006875319
0.30584	0.006834406
0.30592	0.006924508
0.306	0.006941581
0.30608	0.007016937
0.30616	0.006845464
0.30624	0.006356977
0.30632	0.006449196
0.3064	0.00657101
0.30648	0.006373402
0.30656	0.006112337
0.30664	0.00532894
0.30672	0.004370152
0.3068	0.003826482
0.30688	0.00348437
0.30696	0.003514177
0.30704	0.003498831
0.30712	0.002956737
0.3072	0.001836817
0.30728	0.0009361882
0.30736	0.0003128065
0.30744	0.0001448644
0.30752	-0.0002955117
0.3076	-0.001312549
0.30768	-0.001466006
0.30776	-0.0009758895
0.30784	-0.0008684752
0.30792	-0.001161251
0.308	-0.001686406
0.30808	-0.002536993
0.30816	-0.003121995
0.30824	-0.004216135
0.30832	-0.005425628
0.3084	-0.006010074
0.30848	-0.006853483
0.30856	-0.007951233
0.30864	-0.008892961
0.30872	-0.009540806
0.3088	-0.01028358
0.30888	-0.01079335
0.30896	-0.01083556
0.30904	-0.01134355
0.30912	-0.0119592
0.3092	-0.01242211
0.30928	-0.01277257
0.30936	-0.01330434
0.30944	-0.01422244
0.30952	-0.01516855
0.3096	-0.01527558
0.30968	-0.0154816
0.30976	-0.016095
0.30984	-0.0161379
0.30992	-0.01638048
0.31	-0.01638067
0.31008	-0.01680126
0.31016	-0.01709596
0.31024	-0.01750936
0.31032	-0.0182706
0.3104	-0.01929
0.31048	-0.01996424
0.31056	-0.02036743
0.31064	-0.02089218
0.31072	-0.02122656
0.3108	-0.02162135
0.31088	-0.02139943
0.31096	-0.02052974
0.31104	-0.02012575
0.31112	-0.01984699
0.3112	-0.01979563
0.31128	-0.01995653
0.31136	-0.02067666
0.31144	-0.02098138
0.31152	-0.02058401
0.3116	-0.01996533
0.31168	-0.0201214
0.31176	-0.02047173
0.31184	-0.02096122
0.31192	-0.02196307
0.312	-0.02236942
0.31208	-0.02207066
0.31216	-0.02124593
0.31224	-0.0208139
0.31232	-0.02151909
0.3124	-0.0216812
0.31248	-0.02098705
0.31256	-0.01987346
0.31264	-0.01891865
0.31272	-0.01858241
0.3128	-0.01871078
0.31288	-0.01854411
0.31296	-0.01819909
0.31304	-0.01798459
0.31312	-0.0184995
0.3132	-0.01909214
0.31328	-0.01898251
0.31336	-0.01850032
0.31344	-0.01822778
0.31352	-0.0180534
0.3136	-0.01788179
0.31368	-0.01759969
0.31376	-0.01705564
0.31384	-0.01662077
0.31392	-0.01586931
0.314	-0.01492953
0.31408	-0.01427036
0.31416	-0.01402908
0.31424	-0.01432127
0.31432	-0.01495274
0.3144	-0.01508193
0.31448	-0.01480538
0.31456	-0.01506472
0.31464	-0.01583519
0.31472	-0.0160854
0.3148	-0.01587684
0.31488	-0.01521028
0.31496	-0.01478216
0.31504	-0.01407683
0.31512	-0.01323267
0.3152	-0.01207162
0.31528	-0.01117337
0.31536	-0.01047392
0.31544	-0.009578351
0.31552	-0.009141976
0.3156	-0.008414624
0.31568	-0.008084509
0.31576	-0.008173935
0.31584	-0.007855348
0.31592	-0.007892191
0.316	-0.007977094
0.31608	-0.008205721
0.31616	-0.008727141
0.31624	-0.008686511
0.31632	-0.007675968
0.3164	-0.006871619
0.31648	-0.005760339
0.31656	-0.00503341
0.31664	-0.004299567
0.31672	-0.003279282
0.3168	-0.002183301
0.31688	-0.001021596
0.31696	-5.926988e-5
0.31704	0.0008268218
0.31712	0.00137809
0.3172	0.002051536
0.31728	0.002932529
0.31736	0.00402736
0.31744	0.004339813
0.31752	0.004370019
0.3176	0.00445604
0.31768	0.005240622
0.31776	0.006254397
0.31784	0.006943867
0.31792	0.007123675
0.318	0.007583991
0.31808	0.008594529
0.31816	0.008686454
0.31824	0.008547531
0.31832	0.008670889
0.3184	0.009430331
0.31848	0.010051
0.31856	0.01016098
0.31864	0.01030328
0.31872	0.01063197
0.3188	0.01025979
0.31888	0.01007077
0.31896	0.0103724
0.31904	0.01066197
0.31912	0.0105972
0.3192	0.01094912
0.31928	0.01121011
0.31936	0.01168953
0.31944	0.01219172
0.31952	0.01227655
0.3196	0.01280913
0.31968	0.01340501
0.31976	0.01456018
0.31984	0.01593323
0.31992	0.01692302
0.32	0.01751977
0.32008	0.01792431
0.32016	0.01748778
0.32024	0.01746733
0.32032	0.01793113
0.3204	0.0187872
0.32048	0.01914788
0.32056	0.01902426
0.32064	0.01858287
0.32072	0.01833397
0.3208	0.01862296
0.32088	0.01849459
0.32096	0.01806912
0.32104	0.01758445
0.32112	0.01716026
0.3212	0.01692116
0.32128	0.01696042
0.32136	0.01744898
0.32144	0.01768815
0.32152	0.01793176
0.3216	0.01798934
0.32168	0.01837065
0.32176	0.01887735
0.32184	0.01942047
0.32192	0.01979391
0.322	0.02004647
0.32208	0.02015679
0.32216	0.02012867
0.32224	0.01993819
0.32232	0.02039834
0.3224	0.02011426
0.32248	0.01960583
0.32256	0.01964939
0.32264	0.01920381
0.32272	0.01906284
0.3228	0.01921556
0.32288	0.01905949
0.32296	0.0188046
0.32304	0.01867349
0.32312	0.01845765
0.3232	0.018367
0.32328	0.01859692
0.32336	0.0191865
0.32344	0.01946319
0.32352	0.01948337
0.3236	0.01937615
0.32368	0.01922711
0.32376	0.0187369
0.32384	0.01879848
0.32392	0.01907935
0.324	0.01927072
0.32408	0.01994175
0.32416	0.02043828
0.32424	0.02031367
0.32432	0.01996238
0.3244	0.0194443
0.32448	0.01879561
0.32456	0.0187198
0.32464	0.01830136
0.32472	0.01773917
0.3248	0.01768699
0.32488	0.01759864
0.32496	0.01727557
0.32504	0.01725739
0.32512	0.01680543
0.3252	0.01621238
0.32528	0.01577882
0.32536	0.01444026
0.32544	0.0137386
0.32552	0.01321522
0.3256	0.01257203
0.32568	0.01187624
0.32576	0.0113081
0.32584	0.01112047
0.32592	0.01050082
0.326	0.009785878
0.32608	0.009332693
0.32616	0.008543077
0.32624	0.007872457
0.32632	0.007346905
0.3264	0.007073055
0.32648	0.006724805
0.32656	0.006311139
0.32664	0.006012088
0.32672	0.005598374
0.3268	0.004573246
0.32688	0.003453458
0.32696	0.002862728
0.32704	0.002375632
0.32712	0.002021167
0.3272	0.001649285
0.32728	0.0006092268
0.32736	-3.738468e-5
0.32744	-0.000146779
0.32752	-0.0005598971
0.3276	-0.001818351
0.32768	-0.002984715
0.32776	-0.003957351
0.32784	-0.004570005
0.32792	-0.004881503
0.328	-0.005114149
0.32808	-0.005161077
0.32816	-0.005237985
0.32824	-0.004772367
0.32832	-0.004401289
0.3284	-0.004457625
0.32848	-0.004807161
0.32856	-0.005528845
0.32864	-0.006925194
0.32872	-0.00756334
0.3288	-0.008240471
0.32888	-0.008870224
0.32896	-0.009175662
0.32904	-0.00989343
0.32912	-0.009977626
0.3292	-0.009846951
0.32928	-0.01036386
0.32936	-0.01111932
0.32944	-0.011923
0.32952	-0.01252718
0.3296	-0.01363316
0.32968	-0.01446052
0.32976	-0.0147117
0.32984	-0.01499476
0.32992	-0.01507939
0.33	-0.01523964
0.33008	-0.01531447
0.33016	-0.01527833
0.33024	-0.01535941
0.33032	-0.01605938
0.3304	-0.01617945
0.33048	-0.0159654
0.33056	-0.01639884
0.33064	-0.01728018
0.33072	-0.01780047
0.3308	-0.01874195
0.33088	-0.02002605
0.33096	-0.02057602
0.33104	-0.02079584
0.33112	-0.02104225
0.3312	-0.02078102
0.33128	-0.02082102
0.33136	-0.02034086
0.33144	-0.02010102
0.33152	-0.02033852
0.3316	-0.02002392
0.33168	-0.01976707
0.33176	-0.01983933
0.33184	-0.01980029
0.33192	-0.01955036
0.332	-0.01952082
0.33208	-0.01977622
0.33216	-0.02027774
0.33224	-0.02021404
0.33232	-0.02045506
0.3324	-0.0201947
0.33248	-0.01970194
0.33256	-0.01952445
0.33264	-0.01978059
0.33272	-0.02023365
0.3328	-0.0204087
0.33288	-0.0205218
0.33296	-0.02111056
0.33304	-0.02155855
0.33312	-0.02140312
0.3332	-0.02118217
0.33328	-0.02163361
0.33336	-0.0221452
0.33344	-0.02231876
0.33352	-0.02177127
0.3336	-0.02141375
0.33368	-0.021004
0.33376	-0.02115821
0.33384	-0.0210705
0.33392	-0.0209442
0.334	-0.0210798
0.33408	-0.02123101
0.33416	-0.0211956
0.33424	-0.02069547
0.33432	-0.02003379
0.3344	-0.01985264
0.33448	-0.01976464
0.33456	-0.01968523
0.33464	-0.01951689
0.33472	-0.01950563
0.3348	-0.01943495
0.33488	-0.01872681
0.33496	-0.01769609
0.33504	-0.0167388
0.33512	-0.01544941
0.3352	-0.01448399
0.33528	-0.01436922
0.33536	-0.0141788
0.33544	-0.01425564
0.33552	-0.01430784
0.3356	-0.01360113
0.33568	-0.01263777
0.33576	-0.01209719
0.33584	-0.01135161
0.33592	-0.01069832
0.336	-0.009761961
0.33608	-0.008891413
0.33616	-0.008290479
0.33624	-0.007716992
0.33632	-0.007106231
0.3364	-0.005957703
0.33648	-0.00530471
0.33656	-0.004689066
0.33664	-0.004358346
0.33672	-0.004032259
0.3368	-0.003436683
0.33688	-0.002870245
0.33696	-0.002787312
0.33704	-0.002994912
0.33712	-0.002445082
0.3372	-0.001291678
0.33728	-0.0005939797
0.33736	-4.074454e-5
0.33744	0.0006280149
0.33752	0.001130107
0.3376	0.001795831
0.33768	0.002808237
0.33776	0.002464984
0.33784	0.002149091
0.33792	0.001585861
0.338	0.00108851
0.33808	0.001991538
0.33816	0.00339068
0.33824	0.00462108
0.33832	0.006144655
0.3384	0.007325965
0.33848	0.008082958
0.33856	0.009077194
0.33864	0.009331853
0.33872	0.009671091
0.3388	0.009937041
0.33888	0.01030675
0.33896	0.01096737
0.33904	0.01133834
0.33912	0.01168443
0.3392	0.01270202
0.33928	0.01304727
0.33936	0.01320128
0.33944	0.01337378
0.33952	0.01389867
0.3396	0.0145308
0.33968	0.01475017
0.33976	0.01421244
0.33984	0.01414265
0.33992	0.01449694
0.34	0.01540765
0.34008	0.01598013
0.34016	0.01705144
0.34024	0.01770967
0.34032	0.01835986
0.3404	0.01901894
0.34048	0.01929056
0.34056	0.02002481
0.34064	0.01994514
0.34072	0.01956498
0.3408	0.01973399
0.34088	0.01975255
0.34096	0.01957575
0.34104	0.01953877
0.34112	0.01987208
0.3412	0.02056095
0.34128	0.02116983
0.34136	0.02172584
0.34144	0.02238469
0.34152	0.02278053
0.3416	0.02336027
0.34168	0.02379906
0.34176	0.02379926
0.34184	0.02413616
0.34192	0.02464161
0.342	0.02499553
0.34208	0.02479963
0.34216	0.02443811
0.34224	0.02415838
0.34232	0.02446156
0.3424	0.02473073
0.34248	0.0253663
0.34256	0.02548082
0.34264	0.02454712
0.34272	0.02392008
0.3428	0.02392658
0.34288	0.02351636
0.34296	0.02312052
0.34304	0.02195945
0.34312	0.02087083
0.3432	0.02068534
0.34328	0.0208641
0.34336	0.02131413
0.34344	0.02134949
0.34352	0.02093438
0.3436	0.02050264
0.34368	0.01900904
0.34376	0.01799696
0.34384	0.01755056
0.34392	0.01738391
0.344	0.01727907
0.34408	0.01668924
0.34416	0.01569909
0.34424	0.01519764
0.34432	0.01465156
0.3444	0.01394848
0.34448	0.0142449
0.34456	0.01543377
0.34464	0.01583974
0.34472	0.01606206
0.3448	0.01608947
0.34488	0.0154981
0.34496	0.01503568
0.34504	0.01465915
0.34512	0.01412573
0.3452	0.01289195
0.34528	0.01146632
0.34536	0.01058675
0.34544	0.009271803
0.34552	0.008524491
0.3456	0.008192314
0.34568	0.007611284
0.34576	0.007134702
0.34584	0.007138427
0.34592	0.007363347
0.346	0.006855747
0.34608	0.006598506
0.34616	0.007378915
0.34624	0.007766013
0.34632	0.007481482
0.3464	0.006883856
0.34648	0.006227679
0.34656	0.005736955
0.34664	0.004504733
0.34672	0.00345681
0.3468	0.003254075
0.34688	0.003548249
0.34696	0.003472496
0.34704	0.002868485
0.34712	0.002300544
0.3472	0.00165867
0.34728	0.000869078
0.34736	0.0001611112
0.34744	2.357224e-5
0.34752	6.718607e-6
0.3476	-0.000384597
0.34768	-0.0003485658
0.34776	-0.0003171473
0.34784	-0.0004777253
0.34792	-0.0009768156
0.348	-0.002032868
0.34808	-0.002809309
0.34816	-0.003285893
0.34824	-0.003479084
0.34832	-0.003644765
0.3484	-0.004864296
0.34848	-0.006491662
0.34856	-0.007868255
0.34864	-0.008214562
0.34872	-0.008734403
0.3488	-0.009433528
0.34888	-0.01041994
0.34896	-0.01154809
0.34904	-0.01189542
0.34912	-0.01216613
0.3492	-0.01291604
0.34928	-0.01336244
0.34936	-0.01344946
0.34944	-0.0146721
0.34952	-0.01596283
0.3496	-0.01654002
0.34968	-0.01659072
0.34976	-0.01708817
0.34984	-0.01764121
0.34992	-0.01819425
0.35	-0.01884082
0.35008	-0.01966822
0.35016	-0.02057499
0.35024	-0.02107336
0.35032	-0.02220262
0.3504	-0.02319294
0.35048	-0.02365946
0.35056	-0.02384806
0.35064	-0.02395191
0.35072	-0.02398627
0.3508	-0.02416301
0.35088	-0.0246926
0.35096	-0.02484377
0.35104	-0.02456422
0.35112	-0.02448905
0.3512	-0.02507152
0.35128	-0.02547822
0.35136	-0.02531751
0.35144	-0.02535091
0.35152	-0.02562156
0.3516	-0.02587859
0.35168	-0.02610361
0.35176	-0.02625662
0.35184	-0.02617653
0.35192	-0.02610734
0.352	-0.02569731
0.35208	-0.02523519
0.35216	-0.02473926
0.35224	-0.02391221
0.35232	-0.02353407
0.3524	-0.02361306
0.35248	-0.02356809
0.35256	-0.0234159
0.35264	-0.02359693
0.35272	-0.02292586
0.3528	-0.02202347
0.35288	-0.02203198
0.35296	-0.02172915
0.35304	-0.02114948
0.35312	-0.02077352
0.3532	-0.02090976
0.35328	-0.0208318
0.35336	-0.02111651
0.35344	-0.02174216
0.35352	-0.02187879
0.3536	-0.02088571
0.35368	-0.01939671
0.35376	-0.0192356
0.35384	-0.01877852
0.35392	-0.01835208
0.354	-0.01776758
0.35408	-0.01751096
0.35416	-0.01699839
0.35424	-0.01673699
0.35432	-0.0168711
0.3544	-0.01712918
0.35448	-0.01722332
0.35456	-0.01667967
0.35464	-0.01592888
0.35472	-0.01527181
0.3548	-0.0148091
0.35488	-0.01408368
0.35496	-0.01387824
0.35504	-0.01400749
0.35512	-0.01347719
0.3552	-0.01316618
0.35528	-0.01302283
0.35536	-0.01267695
0.35544	-0.0123139
0.35552	-0.01302956
0.3556	-0.01318812
0.35568	-0.01249285
0.35576	-0.01177259
0.35584	-0.01153755
0.35592	-0.01100752
0.356	-0.01001481
0.35608	-0.00879463
0.35616	-0.00813356
0.35624	-0.008171376
0.35632	-0.008234278
0.3564	-0.007984701
0.35648	-0.007870262
0.35656	-0.007548373
0.35664	-0.006950909
0.35672	-0.006129913
0.3568	-0.004994819
0.35688	-0.003962889
0.35696	-0.002938898
0.35704	-0.002239732
0.35712	-0.001755415
0.3572	-0.001394254
0.35728	-0.0006281547
0.35736	2.61912e-5
0.35744	0.0006372023
0.35752	0.00148411
0.3576	0.001689247
0.35768	0.001637144
0.35776	0.001781624
0.35784	0.00226552
0.35792	0.00296901
0.358	0.003966267
0.35808	0.005105649
0.35816	0.005797972
0.35824	0.006377505
0.35832	0.006675539
0.3584	0.006472151
0.35848	0.0068645
0.35856	0.007516296
0.35864	0.007946474
0.35872	0.008822144
0.3588	0.009712453
0.35888	0.01112949
0.35896	0.0113083
0.35904	0.01197567
0.35912	0.01277627
0.3592	0.01344994
0.35928	0.01459534
0.35936	0.01579678
0.35944	0.01657365
0.35952	0.0166732
0.3596	0.01697167
0.35968	0.01727004
0.35976	0.01746968
0.35984	0.018053
0.35992	0.01924708
0.36	0.02025553
0.36008	0.02145577
0.36016	0.02148716
0.36024	0.02168441
0.36032	0.02193311
0.3604	0.0215846
0.36048	0.0221667
0.36056	0.02236238
0.36064	0.02184789
0.36072	0.02179284
0.3608	0.02186839
0.36088	0.02163621
0.36096	0.02170123
0.36104	0.0227276
0.36112	0.02293059
0.3612	0.02331891
0.36128	0.02400843
0.36136	0.02505889
0.36144	0.02506298
0.36152	0.02414984
0.3616	0.02403223
0.36168	0.02371197
0.36176	0.02368437
0.36184	0.02341912
0.36192	0.02274656
0.362	0.02184806
0.36208	0.02088424
0.36216	0.02056096
0.36224	0.01983246
0.36232	0.02013876
0.3624	0.02031957
0.36248	0.02002887
0.36256	0.0197184
0.36264	0.01956247
0.36272	0.01929006
0.3628	0.0182506
0.36288	0.01756916
0.36296	0.01739141
0.36304	0.01716932
0.36312	0.01699195
0.3632	0.01672837
0.36328	0.01656605
0.36336	0.01693916
0.36344	0.01663691
0.36352	0.01616259
0.3636	0.01574484
0.36368	0.01546029
0.36376	0.01618454
0.36384	0.0164666
0.36392	0.01630407
0.364	0.01592416
0.36408	0.01542506
0.36416	0.01534061
0.36424	0.01530841
0.36432	0.015197
0.3644	0.01513291
0.36448	0.01469059
0.36456	0.01397503
0.36464	0.01323205
0.36472	0.01325957
0.3648	0.01342668
0.36488	0.01286434
0.36496	0.01195784
0.36504	0.01043638
0.36512	0.009358022
0.3652	0.008494672
0.36528	0.007889921
0.36536	0.007574617
0.36544	0.006522925
0.36552	0.006249741
0.3656	0.00552261
0.36568	0.004973086
0.36576	0.004462591
0.36584	0.003598138
0.36592	0.0027534
0.366	0.002223031
0.36608	0.002261542
0.36616	0.002220853
0.36624	0.002412438
0.36632	0.002352632
0.3664	0.001893702
0.36648	0.00165014
0.36656	0.001488281
0.36664	0.001227265
0.36672	0.001224469
0.3668	0.0007024629
0.36688	0.0002864509
0.36696	-0.0003713214
0.36704	-0.001131478
0.36712	-0.001936017
0.3672	-0.002469715
0.36728	-0.0030496
0.36736	-0.003416077
0.36744	-0.003936573
0.36752	-0.004975661
0.3676	-0.005309328
0.36768	-0.004780484
0.36776	-0.004658038
0.36784	-0.005592237
0.36792	-0.006324928
0.368	-0.007090384
0.36808	-0.007595373
0.36816	-0.007774547
0.36824	-0.00821346
0.36832	-0.008643514
0.3684	-0.009587054
0.36848	-0.01096017
0.36856	-0.0116339
0.36864	-0.01291476
0.36872	-0.01431142
0.3688	-0.01447589
0.36888	-0.01465953
0.36896	-0.01484736
0.36904	-0.01481827
0.36912	-0.01469877
0.3692	-0.01514531
0.36928	-0.01483393
0.36936	-0.01455225
0.36944	-0.01430786
0.36952	-0.01422258
0.3696	-0.01470084
0.36968	-0.0149563
0.36976	-0.01529338
0.36984	-0.01564662
0.36992	-0.01619918
0.37	-0.01674951
0.37008	-0.0171973
0.37016	-0.01765595
0.37024	-0.01885162
0.37032	-0.02006039
0.3704	-0.02041331
0.37048	-0.0200696
0.37056	-0.01958042
0.37064	-0.01899325
0.37072	-0.01822122
0.3708	-0.01827583
0.37088	-0.01870766
0.37096	-0.01944921
0.37104	-0.02015325
0.37112	-0.02078401
0.3712	-0.0212852
0.37128	-0.02180507
0.37136	-0.0220421
0.37144	-0.02213553
0.37152	-0.02255359
0.3716	-0.0223024
0.37168	-0.02197211
0.37176	-0.02130886
0.37184	-0.0204829
0.37192	-0.01960476
0.372	-0.01906327
0.37208	-0.01876016
0.37216	-0.01843501
0.37224	-0.0183562
0.37232	-0.01877305
0.3724	-0.01887489
0.37248	-0.01891929
0.37256	-0.01878317
0.37264	-0.01842919
0.37272	-0.01766719
0.3728	-0.01718414
0.37288	-0.01678655
0.37296	-0.01654189
0.37304	-0.01642666
0.37312	-0.01683959
0.3732	-0.01726244
0.37328	-0.01731769
0.37336	-0.01651533
0.37344	-0.01601283
0.37352	-0.01567511
0.3736	-0.01519391
0.37368	-0.01477502
0.37376	-0.01392672
0.37384	-0.01304096
0.37392	-0.01262077
0.374	-0.01230324
0.37408	-0.01195802
0.37416	-0.01177917
0.37424	-0.01207845
0.37432	-0.01172483
0.3744	-0.01088381
0.37448	-0.01070556
0.37456	-0.0102555
0.37464	-0.009805539
0.37472	-0.009364725
0.3748	-0.009166515
0.37488	-0.008425709
0.37496	-0.0079476
0.37504	-0.007641599
0.37512	-0.007085972
0.3752	-0.007051733
0.37528	-0.007249748
0.37536	-0.007240875
0.37544	-0.007334959
0.37552	-0.00743497
0.3756	-0.007462253
0.37568	-0.007015742
0.37576	-0.006358818
0.37584	-0.005370519
0.37592	-0.004740194
0.376	-0.003780385
0.37608	-0.002366748
0.37616	-0.0006280917
0.37624	7.762994e-5
0.37632	0.000406822
0.3764	0.0009405413
0.37648	0.0009581833
0.37656	0.0009250165
0.37664	0.001120609
0.37672	0.00139666
0.3768	0.001045802
0.37688	0.001146512
0.37696	0.001392684
0.37704	0.001196466
0.37712	0.001874675
0.3772	0.003023483
0.37728	0.004544636
0.37736	0.005587474
0.37744	0.00582985
0.37752	0.005427225
0.3776	0.005208521
0.37768	0.005554775
0.37776	0.005470356
0.37784	0.005631
0.37792	0.006494972
0.378	0.006838385
0.37808	0.007113904
0.37816	0.007572242
0.37824	0.008081517
0.37832	0.008418442
0.3784	0.009492862
0.37848	0.01101468
0.37856	0.01191181
0.37864	0.01297052
0.37872	0.01386406
0.3788	0.01483018
0.37888	0.01555083
0.37896	0.01613197
0.37904	0.01670712
0.37912	0.01654151
0.3792	0.01631147
0.37928	0.01623466
0.37936	0.01667274
0.37944	0.01731844
0.37952	0.01780419
0.3796	0.01843768
0.37968	0.01926282
0.37976	0.01966066
0.37984	0.01982696
0.37992	0.02018407
0.38	0.02053135
0.38008	0.02092322
0.38016	0.02132891
0.38024	0.02159079
0.38032	0.02210987
0.3804	0.02217533
0.38048	0.02182184
0.38056	0.02175921
0.38064	0.02182482
0.38072	0.02205893
0.3808	0.02209565
0.38088	0.02256333
0.38096	0.02208216
0.38104	0.02193778
0.38112	0.02254882
0.3812	0.0224106
0.38128	0.02276842
0.38136	0.02309052
0.38144	0.02276944
0.38152	0.02233377
0.3816	0.02237234
0.38168	0.02228163
0.38176	0.02276509
0.38184	0.0226976
0.38192	0.02215655
0.382	0.02161457
0.38208	0.02075113
0.38216	0.02014158
0.38224	0.02059658
0.38232	0.02149544
0.3824	0.02156433
0.38248	0.02136335
0.38256	0.02084848
0.38264	0.0207012
0.38272	0.02062459
0.3828	0.02025338
0.38288	0.01969487
0.38296	0.01945731
0.38304	0.01928055
0.38312	0.01926236
0.3832	0.0193084
0.38328	0.01927328
0.38336	0.01890159
0.38344	0.01888719
0.38352	0.01831138
0.3836	0.01732676
0.38368	0.01674148
0.38376	0.0160292
0.38384	0.01512959
0.38392	0.0150146
0.384	0.0150752
0.38408	0.01474814
0.38416	0.01498916
0.38424	0.01528498
0.38432	0.01523998
0.3844	0.01508313
0.38448	0.0145508
0.38456	0.01310288
0.38464	0.01241828
0.38472	0.01238987
0.3848	0.01194848
0.38488	0.01102273
0.38496	0.01080873
0.38504	0.01058601
0.38512	0.01022507
0.3852	0.009379016
0.38528	0.008051678
0.38536	0.007351242
0.38544	0.007172613
0.38552	0.007094099
0.3856	0.007506385
0.38568	0.007708485
0.38576	0.00736956
0.38584	0.007292728
0.38592	0.006829058
0.386	0.006021739
0.38608	0.004978716
0.38616	0.004085751
0.38624	0.003821246
0.38632	0.003138256
0.3864	0.002150017
0.38648	0.001685759
0.38656	0.00121275
0.38664	0.0007216366
0.38672	0.0003980373
0.3868	0.0004017707
0.38688	-0.000939693
0.38696	-0.001920833
0.38704	-0.002010818
0.38712	-0.002103845
0.3872	-0.001890277
0.38728	-0.001694052
0.38736	-0.002071
0.38744	-0.002397208
0.38752	-0.003212695
0.3876	-0.004179313
0.38768	-0.005085352
0.38776	-0.005412111
0.38784	-0.005622784
0.38792	-0.005904443
0.388	-0.005671729
0.38808	-0.005671985
0.38816	-0.005601401
0.38824	-0.006410074
0.38832	-0.007388929
0.3884	-0.008078886
0.38848	-0.00851001
0.38856	-0.008444559
0.38864	-0.009191132
0.38872	-0.01057026
0.3888	-0.01106203
0.38888	-0.011784
0.38896	-0.0122183
0.38904	-0.01224742
0.38912	-0.01204457
0.3892	-0.01205865
0.38928	-0.0124101
0.38936	-0.01217912
0.38944	-0.0121333
0.38952	-0.01237731
0.3896	-0.01279521
0.38968	-0.01351415
0.38976	-0.01442815
0.38984	-0.01553295
0.38992	-0.01634696
0.39	-0.01716458
0.39008	-0.0177557
0.39016	-0.01735791
0.39024	-0.01658121
0.39032	-0.01618838
0.3904	-0.01631169
0.39048	-0.01641214
0.39056	-0.01755724
0.39064	-0.01776313
0.39072	-0.01752422
0.3908	-0.0177456
0.39088	-0.0180832
0.39096	-0.01825604
0.39104	-0.01864252
0.39112	-0.01886043
0.3912	-0.01828226
0.39128	-0.01799694
0.39136	-0.018279
0.39144	-0.01853653
0.39152	-0.0188467
0.3916	-0.01912711
0.39168	-0.01956716
0.39176	-0.01906981
0.39184	-0.01882428
0.39192	-0.01867386
0.392	-0.01843179
0.39208	-0.01829498
0.39216	-0.01866417
0.39224	-0.01917949
0.39232	-0.01939566
0.3924	-0.01954178
0.39248	-0.01919145
0.39256	-0.01911042
0.39264	-0.01884969
0.39272	-0.01849208
0.3928	-0.01835639
0.39288	-0.01759268
0.39296	-0.01730135
0.39304	-0.01689456
0.39312	-0.01592521
0.3932	-0.01512182
0.39328	-0.01506977
0.39336	-0.01552577
0.39344	-0.01594861
0.39352	-0.01598444
0.3936	-0.01594305
0.39368	-0.01645303
0.39376	-0.01664996
0.39384	-0.01653316
0.39392	-0.01686861
0.394	-0.01679109
0.39408	-0.01711575
0.39416	-0.01746736
0.39424	-0.01752578
0.39432	-0.01709905
0.3944	-0.01629466
0.39448	-0.01508823
0.39456	-0.01467892
0.39464	-0.01482349
0.39472	-0.01462469
0.3948	-0.01431411
0.39488	-0.01392686
0.39496	-0.01355281
0.39504	-0.01257611
0.39512	-0.01194386
0.3952	-0.01142003
0.39528	-0.0110474
0.39536	-0.01046821
0.39544	-0.009187678
0.39552	-0.008196141
0.3956	-0.007994115
0.39568	-0.007948475
0.39576	-0.007614433
0.39584	-0.007265029
0.39592	-0.007730352
0.396	-0.008229923
0.39608	-0.0092834
0.39616	-0.009328922
0.39624	-0.008460308
0.39632	-0.007835382
0.3964	-0.007223757
0.39648	-0.006401037
0.39656	-0.005669347
0.39664	-0.004446657
0.39672	-0.003397679
0.3968	-0.003128498
0.39688	-0.002546923
0.39696	-0.001701057
0.39704	-0.0008353251
0.39712	-0.0001361607
0.3972	0.0001369236
0.39728	0.0005825865
0.39736	0.0001043329
0.39744	-0.0004799436
0.39752	-5.706529e-6
0.3976	0.0005996176
0.39768	0.0007998932
0.39776	0.001134013
0.39784	0.001588183
0.39792	0.001976599
0.398	0.002552939
0.39808	0.00254273
0.39816	0.003209826
0.39824	0.004381977
0.39832	0.005764478
0.3984	0.007110223
0.39848	0.007893153
0.39856	0.00825377
0.39864	0.008753773
0.39872	0.00918797
0.3988	0.01021429
0.39888	0.01138797
0.39896	0.01166735
0.39904	0.0117237
0.39912	0.01245589
0.3992	0.01352995
0.39928	0.01444477
0.39936	0.0147102
0.39944	0.01529217
0.39952	0.01602568
0.3996	0.01644163
0.39968	0.01704321
0.39976	0.01766483
0.39984	0.01792939
0.39992	0.01836799
0.4	0.01895005
0.40008	0.01924878
0.40016	0.01916563
0.40024	0.01910185
0.40032	0.01931636
0.4004	0.01938896
0.40048	0.01948638
0.40056	0.01980607
0.40064	0.01974871
0.40072	0.02031512
0.4008	0.02197515
0.40088	0.02337253
0.40096	0.02387686
0.40104	0.02391556
0.40112	0.02395589
0.4012	0.0240005
0.40128	0.02364881
0.40136	0.02397804
0.40144	0.02468325
0.40152	0.02477496
0.4016	0.02503686
0.40168	0.02516286
0.40176	0.02456161
0.40184	0.02406091
0.40192	0.02358415
0.402	0.02326169
0.40208	0.02290932
0.40216	0.02189861
0.40224	0.02087295
0.40232	0.02084797
0.4024	0.02114419
0.40248	0.0209354
0.40256	0.02058593
0.40264	0.02071258
0.40272	0.02065413
0.4028	0.01982825
0.40288	0.01948411
0.40296	0.0193466
0.40304	0.01943706
0.40312	0.01905651
0.4032	0.01890578
0.40328	0.01972089
0.40336	0.02025716
0.40344	0.02044662
0.40352	0.01970363
0.4036	0.01885973
0.40368	0.01828491
0.40376	0.01789771
0.40384	0.01778774
0.40392	0.01775535
0.404	0.01723183
0.40408	0.01654798
0.40416	0.01598614
0.40424	0.0159378
0.40432	0.01583775
0.4044	0.01527293
0.40448	0.01456614
0.40456	0.01349702
0.40464	0.01354647
0.40472	0.01303538
0.4048	0.01223112
0.40488	0.01137637
0.40496	0.01055235
0.40504	0.01021348
0.40512	0.009520795
0.4052	0.008187012
0.40528	0.007633821
0.40536	0.007136877
0.40544	0.006247864
0.40552	0.005668068
0.4056	0.00499569
0.40568	0.004240177
0.40576	0.00366824
0.40584	0.002971927
0.40592	0.002937902
0.406	0.002970638
0.40608	0.003058697
0.40616	0.00372505
0.40624	0.003579415
0.40632	0.002835785
0.4064	0.001857104
0.40648	0.001250277
0.40656	0.0009542145
0.40664	0.0001952098
0.40672	-0.0004337666
0.4068	-0.001211326
0.40688	-0.001879406
0.40696	-0.002506636
0.40704	-0.003709289
0.40712	-0.004103851
0.4072	-0.004082709
0.40728	-0.004281576
0.40736	-0.004437977
0.40744	-0.004066398
0.40752	-0.003493053
0.4076	-0.003455202
0.40768	-0.004387407
0.40776	-0.005697761
0.40784	-0.006451789
0.40792	-0.006719056
0.408	-0.007149984
0.40808	-0.007786014
0.40816	-0.008154655
0.40824	-0.009232551
0.40832	-0.009950669
0.4084	-0.01021961
0.40848	-0.01042603
0.40856	-0.01100769
0.40864	-0.0107148
0.40872	-0.01099237
0.4088	-0.01146309
0.40888	-0.01227198
0.40896	-0.01287018
0.40904	-0.0129229
0.40912	-0.01312806
0.4092	-0.01359771
0.40928	-0.01393242
0.40936	-0.0139892
0.40944	-0.01387931
0.40952	-0.01417596
0.4096	-0.01446615
0.40968	-0.01456032
0.40976	-0.0148607
0.40984	-0.01566445
0.40992	-0.01646879
0.41	-0.01708487
0.41008	-0.01774409
0.41016	-0.01743151
0.41024	-0.01651743
0.41032	-0.01623872
0.4104	-0.01553716
0.41048	-0.01544911
0.41056	-0.01574212
0.41064	-0.01633155
0.41072	-0.01651307
0.4108	-0.01633415
0.41088	-0.01656749
0.41096	-0.01739723
0.41104	-0.01820329
0.41112	-0.01885222
0.4112	-0.01934241
0.41128	-0.01968853
0.41136	-0.01963393
0.41144	-0.01937128
0.41152	-0.01880429
0.4116	-0.01845673
0.41168	-0.01847218
0.41176	-0.0187197
0.41184	-0.01877357
0.41192	-0.01842294
0.412	-0.01830102
0.41208	-0.01834223
0.41216	-0.01868949
0.41224	-0.01923376
0.41232	-0.01973697
0.4124	-0.01980517
0.41248	-0.0194431
0.41256	-0.01933578
0.41264	-0.01928467
0.41272	-0.01893328
0.4128	-0.01902265
0.41288	-0.01968215
0.41296	-0.02047023
0.41304	-0.02045398
0.41312	-0.02004801
0.4132	-0.01984303
0.41328	-0.01946556
0.41336	-0.0191399
0.41344	-0.01904798
0.41352	-0.01889791
0.4136	-0.01835412
0.41368	-0.01747698
0.41376	-0.01704667
0.41384	-0.0159425
0.41392	-0.01536686
0.414	-0.01524657
0.41408	-0.01509469
0.41416	-0.01481177
0.41424	-0.01484554
0.41432	-0.01525923
0.4144	-0.01537182
0.41448	-0.01533891
0.41456	-0.01552228
0.41464	-0.01550152
0.41472	-0.01513124
0.4148	-0.01446589
0.41488	-0.01415167
0.41496	-0.014336
0.41504	-0.01413646
0.41512	-0.0138476
0.4152	-0.01308104
0.41528	-0.01227174
0.41536	-0.01190926
0.41544	-0.01194054
0.41552	-0.01181505
0.4156	-0.01112982
0.41568	-0.01072568
0.41576	-0.01034362
0.41584	-0.009753691
0.41592	-0.00915567
0.416	-0.009025536
0.41608	-0.008552991
0.41616	-0.007871876
0.41624	-0.007844909
0.41632	-0.007645402
0.4164	-0.006975368
0.41648	-0.006787891
0.41656	-0.006435965
0.41664	-0.005872803
0.41672	-0.005569321
0.4168	-0.005209963
0.41688	-0.004851262
0.41696	-0.004472442
0.41704	-0.003721471
0.41712	-0.003199481
0.4172	-0.002449508
0.41728	-0.001917033
0.41736	-0.002032883
0.41744	-0.002549771
0.41752	-0.002464043
0.4176	-0.001909737
0.41768	-0.0005889139
0.41776	0.0008557736
0.41784	0.002570776
0.41792	0.004256847
0.418	0.005073259
0.41808	0.005786315
0.41816	0.006708769
0.41824	0.007749121
0.41832	0.008689502
0.4184	0.009818625
0.41848	0.01003344
0.41856	0.01027849
0.41864	0.01087437
0.41872	0.01137166
0.4188	0.01091328
0.41888	0.0109001
0.41896	0.01116428
0.41904	0.01175201
0.41912	0.01281265
0.4192	0.01363597
0.41928	0.0139395
0.41936	0.01420325
0.41944	0.01449826
0.41952	0.01505069
0.4196	0.01543386
0.41968	0.01601429
0.41976	0.01659174
0.41984	0.01679484
0.41992	0.01720894
0.42	0.0174329
0.42008	0.01791895
0.42016	0.01837115
0.42024	0.01850967
0.42032	0.01877577
0.4204	0.01905569
0.42048	0.01924745
0.42056	0.0195291
0.42064	0.01988932
0.42072	0.02008026
0.4208	0.01962843
0.42088	0.01986938
0.42096	0.02070853
0.42104	0.02073179
0.42112	0.02076881
0.4212	0.02128455
0.42128	0.02145434
0.42136	0.02126683
0.42144	0.02116404
0.42152	0.02087494
0.4216	0.02068844
0.42168	0.02088679
0.42176	0.0205482
0.42184	0.0202091
0.42192	0.01985737
0.422	0.01927303
0.42208	0.01860337
0.42216	0.01768026
0.42224	0.01734339
0.42232	0.01732581
0.4224	0.01696919
0.42248	0.0166722
0.42256	0.0165278
0.42264	0.01677872
0.42272	0.01717366
0.4228	0.01724295
0.42288	0.01774296
0.42296	0.01840402
0.42304	0.01840603
0.42312	0.01809043
0.4232	0.01791348
0.42328	0.01797787
0.42336	0.01793903
0.42344	0.01795193
0.42352	0.01774513
0.4236	0.01769831
0.42368	0.01793199
0.42376	0.0182106
0.42384	0.01829029
0.42392	0.01803383
0.424	0.01815671
0.42408	0.01822825
0.42416	0.0173404
0.42424	0.01612982
0.42432	0.01534468
0.4244	0.0150087
0.42448	0.01465222
0.42456	0.0139252
0.42464	0.01353768
0.42472	0.01291845
0.4248	0.01239727
0.42488	0.01182399
0.42496	0.01174578
0.42504	0.01186965
0.42512	0.01196735
0.4252	0.01161075
0.42528	0.01111246
0.42536	0.01029958
0.42544	0.009259515
0.42552	0.009191089
0.4256	0.009165335
0.42568	0.009125439
0.42576	0.008718569
0.42584	0.008345281
0.42592	0.007813079
0.426	0.007812865
0.42608	0.008130082
0.42616	0.008784018
0.42624	0.008924682
0.42632	0.008742354
0.4264	0.008220651
0.42648	0.006389156
0.42656	0.005416772
0.42664	0.004987137
0.42672	0.004276706
0.4268	0.003775058
0.42688	0.003493676
0.42696	0.004090887
0.42704	0.003910937
0.42712	0.002937518
0.4272	0.002325355
0.42728	0.001402157
0.42736	0.001450405
0.42744	0.001388559
0.42752	0.001066255
0.4276	0.0007614547
0.42768	-9.91966e-6
0.42776	-0.0006807396
0.42784	-0.001013032
0.42792	-0.001079652
0.428	-0.00110985
0.42808	-0.0008282089
0.42816	-0.001043864
0.42824	-0.001909488
0.42832	-0.003447593
0.4284	-0.004580556
0.42848	-0.00526154
0.42856	-0.005915135
0.42864	-0.006336393
0.42872	-0.006575908
0.4288	-0.007072705
0.42888	-0.007417521
0.42896	-0.007483022
0.42904	-0.007665774
0.42912	-0.008154923
0.4292	-0.008859756
0.42928	-0.009496228
0.42936	-0.01023055
0.42944	-0.01087069
0.42952	-0.01110728
0.4296	-0.01095816
0.42968	-0.01054192
0.42976	-0.01120947
0.42984	-0.01196187
0.42992	-0.0126219
0.43	-0.01275145
0.43008	-0.01280725
0.43016	-0.01327669
0.43024	-0.0134427
0.43032	-0.01399354
0.4304	-0.01468263
0.43048	-0.01509755
0.43056	-0.01536833
0.43064	-0.01563577
0.43072	-0.01528428
0.4308	-0.01527862
0.43088	-0.01526771
0.43096	-0.01548307
0.43104	-0.01491361
0.43112	-0.01390533
0.4312	-0.01348614
0.43128	-0.01368849
0.43136	-0.01465574
0.43144	-0.01524934
0.43152	-0.01572491
0.4316	-0.01695158
0.43168	-0.01776539
0.43176	-0.01822829
0.43184	-0.01859205
0.43192	-0.01842145
0.432	-0.01851346
0.43208	-0.01884148
0.43216	-0.01931177
0.43224	-0.01955655
0.43232	-0.01989948
0.4324	-0.02002065
0.43248	-0.0197588
0.43256	-0.01918289
0.43264	-0.01889915
0.43272	-0.01968664
0.4328	-0.02005351
0.43288	-0.02043539
0.43296	-0.02058912
0.43304	-0.02028371
0.43312	-0.02005203
0.4332	-0.01957136
0.43328	-0.01946391
0.43336	-0.02052474
0.43344	-0.02112387
0.43352	-0.02120857
0.4336	-0.02126599
0.43368	-0.02159835
0.43376	-0.02176705
0.43384	-0.0214776
0.43392	-0.02108372
0.434	-0.0204581
0.43408	-0.01976325
0.43416	-0.01988919
0.43424	-0.02028756
0.43432	-0.02046048
0.4344	-0.02030929
0.43448	-0.02020724
0.43456	-0.02022367
0.43464	-0.01945753
0.43472	-0.0186438
0.4348	-0.01834258
0.43488	-0.01825133
0.43496	-0.01827018
0.43504	-0.01781554
0.43512	-0.0170032
0.4352	-0.01659332
0.43528	-0.01534766
0.43536	-0.01430762
0.43544	-0.01348241
0.43552	-0.01232631
0.4356	-0.01114956
0.43568	-0.01070432
0.43576	-0.0109523
0.43584	-0.01098406
0.43592	-0.0105341
0.436	-0.01005078
0.43608	-0.00987057
0.43616	-0.009585716
0.43624	-0.009522853
0.43632	-0.009337871
0.4364	-0.008888266
0.43648	-0.008212747
0.43656	-0.008001927
0.43664	-0.008116236
0.43672	-0.007633855
0.4368	-0.006745129
0.43688	-0.005737408
0.43696	-0.005298317
0.43704	-0.005425765
0.43712	-0.004967599
0.4372	-0.004392298
0.43728	-0.003338059
0.43736	-0.002930768
0.43744	-0.002114033
0.43752	-0.00172572
0.4376	-0.0005948457
0.43768	0.0002837563
0.43776	0.0007861275
0.43784	0.001063563
0.43792	0.001155675
0.438	0.001860967
0.43808	0.002722292
0.43816	0.003665992
0.43824	0.004352739
0.43832	0.004503529
0.4384	0.005233417
0.43848	0.006143724
0.43856	0.007061419
0.43864	0.00885249
0.43872	0.01004883
0.4388	0.01047403
0.43888	0.01074519
0.43896	0.01090812
0.43904	0.01116164
0.43912	0.01183121
0.4392	0.01177822
0.43928	0.01162086
0.43936	0.01228474
0.43944	0.01280506
0.43952	0.01332976
0.4396	0.01347842
0.43968	0.01407895
0.43976	0.01468204
0.43984	0.01475414
0.43992	0.01439487
0.44	0.01433292
0.44008	0.01487891
0.44016	0.01524323
0.44024	0.01546873
0.44032	0.01537187
0.4404	0.01532785
0.44048	0.01607967
0.44056	0.01677972
0.44064	0.01716365
0.44072	0.01719065
0.4408	0.01700821
0.44088	0.01736684
0.44096	0.01786619
0.44104	0.01824276
0.44112	0.01899147
0.4412	0.01972481
0.44128	0.020364
0.44136	0.02090241
0.44144	0.02089622
0.44152	0.02105957
0.4416	0.02163256
0.44168	0.02163194
0.44176	0.02157833
0.44184	0.02137437
0.44192	0.02162957
0.442	0.02182931
0.44208	0.02154939
0.44216	0.02099787
0.44224	0.02069982
0.44232	0.02030519
0.4424	0.01997426
0.44248	0.01963726
0.44256	0.01941323
0.44264	0.01930223
0.44272	0.01912624
0.4428	0.01926969
0.44288	0.01962477
0.44296	0.02011422
0.44304	0.02097103
0.44312	0.02122986
0.4432	0.0220291
0.44328	0.0224933
0.44336	0.02251025
0.44344	0.0218296
0.44352	0.02103138
0.4436	0.02106045
0.44368	0.02040267
0.44376	0.01955871
0.44384	0.0182879
0.44392	0.01738024
0.444	0.01669912
0.44408	0.01606222
0.44416	0.01556068
0.44424	0.01585229
0.44432	0.01553386
0.4444	0.0146505
0.44448	0.01393851
0.44456	0.01362314
0.44464	0.01354269
0.44472	0.01327404
0.4448	0.0123469
0.44488	0.01137821
0.44496	0.01056821
0.44504	0.01029702
0.44512	0.01046395
0.4452	0.01080868
0.44528	0.01081492
0.44536	0.01065747
0.44544	0.01065162
0.44552	0.01018668
0.4456	0.00941632
0.44568	0.008761064
0.44576	0.008231351
0.44584	0.008132875
0.44592	0.007660841
0.446	0.006629198
0.44608	0.006120773
0.44616	0.005849147
0.44624	0.00521655
0.44632	0.003846785
0.4464	0.002584594
0.44648	0.001832945
0.44656	0.001876717
0.44664	0.002084525
0.44672	0.002464685
0.4468	0.002739088
0.44688	0.002425399
0.44696	0.002386578
0.44704	0.002168372
0.44712	0.0009604467
0.4472	-0.0009143117
0.44728	-0.002156681
0.44736	-0.002506869
0.44744	-0.003027093
0.44752	-0.003883965
0.4476	-0.004580103
0.44768	-0.005238916
0.44776	-0.005807552
0.44784	-0.006801542
0.44792	-0.007195163
0.448	-0.007162496
0.44808	-0.007578562
0.44816	-0.00817261
0.44824	-0.009121935
0.44832	-0.009395608
0.4484	-0.009508761
0.44848	-0.009483592
0.44856	-0.009364819
0.44864	-0.009888646
0.44872	-0.01026221
0.4488	-0.01024471
0.44888	-0.01102666
0.44896	-0.01210558
0.44904	-0.01290179
0.44912	-0.01301806
0.4492	-0.01283028
0.44928	-0.01271145
0.44936	-0.0129691
0.44944	-0.01359456
0.44952	-0.0142468
0.4496	-0.01465037
0.44968	-0.01515176
0.44976	-0.01619201
0.44984	-0.01667859
0.44992	-0.01735586
0.45	-0.0174905
0.45008	-0.01735668
0.45016	-0.01825357
0.45024	-0.01869708
0.45032	-0.01904803
0.4504	-0.01970897
0.45048	-0.02044947
0.45056	-0.02038722
0.45064	-0.02068306
0.45072	-0.02133001
0.4508	-0.02176026
0.45088	-0.02140984
0.45096	-0.02056454
0.45104	-0.02011693
0.45112	-0.02036175
0.4512	-0.02076796
0.45128	-0.0212011
0.45136	-0.0217774
0.45144	-0.02271769
0.45152	-0.02267456
0.4516	-0.02195013
0.45168	-0.02122686
0.45176	-0.0203086
0.45184	-0.01984601
0.45192	-0.01997199
0.452	-0.02020509
0.45208	-0.01999519
0.45216	-0.02033164
0.45224	-0.02105127
0.45232	-0.02120191
0.4524	-0.02112964
0.45248	-0.02094477
0.45256	-0.02056968
0.45264	-0.01992631
0.45272	-0.02002101
0.4528	-0.02086241
0.45288	-0.02152829
0.45296	-0.02124245
0.45304	-0.02032734
0.45312	-0.01952839
0.4532	-0.01966782
0.45328	-0.01939162
0.45336	-0.01893505
0.45344	-0.01852842
0.45352	-0.01860436
0.4536	-0.01833949
0.45368	-0.01784663
0.45376	-0.01775112
0.45384	-0.01683767
0.45392	-0.01635261
0.454	-0.01623733
0.45408	-0.01616052
0.45416	-0.01565706
0.45424	-0.0154194
0.45432	-0.01579355
0.4544	-0.01615416
0.45448	-0.01641448
0.45456	-0.01664796
0.45464	-0.0167944
0.45472	-0.01639603
0.4548	-0.0156399
0.45488	-0.01510181
0.45496	-0.01414816
0.45504	-0.01327547
0.45512	-0.01243936
0.4552	-0.01211609
0.45528	-0.01173976
0.45536	-0.01132681
0.45544	-0.01083891
0.45552	-0.01003046
0.4556	-0.0086359
0.45568	-0.007439353
0.45576	-0.007096251
0.45584	-0.006397299
0.45592	-0.005612698
0.456	-0.005562742
0.45608	-0.005005876
0.45616	-0.003624043
0.45624	-0.002854889
0.45632	-0.002825279
0.4564	-0.002669483
0.45648	-0.002680335
0.45656	-0.002781895
0.45664	-0.002064699
0.45672	-0.001214065
0.4568	-0.0009983253
0.45688	-0.0004672902
0.45696	0.0003405691
0.45704	0.0007730486
0.45712	0.001164421
0.4572	0.001720746
0.45728	0.002092432
0.45736	0.002687393
0.45744	0.003082532
0.45752	0.002703177
0.4576	0.003115469
0.45768	0.004022065
0.45776	0.004791915
0.45784	0.005405495
0.45792	0.005849
0.458	0.005774139
0.45808	0.005941007
0.45816	0.006627013
0.45824	0.007243615
0.45832	0.008262103
0.4584	0.009446655
0.45848	0.01018625
0.45856	0.01125738
0.45864	0.01239017
0.45872	0.01287219
0.4588	0.0130588
0.45888	0.01306272
0.45896	0.01331701
0.45904	0.01396527
0.45912	0.01472324
0.4592	0.01576875
0.45928	0.01694225
0.45936	0.01749079
0.45944	0.01827406
0.45952	0.01958089
0.4596	0.02035528
0.45968	0.0202898
0.45976	0.01990054
0.45984	0.01946576
0.45992	0.01960696
0.46	0.01958048
0.46008	0.02008076
0.46016	0.02076565
0.46024	0.02114029
0.46032	0.02124323
0.4604	0.02104894
0.46048	0.02103747
0.46056	0.02095537
0.46064	0.02056528
0.46072	0.02021755
0.4608	0.01986812
0.46088	0.02020404
0.46096	0.02024649
0.46104	0.0208094
0.46112	0.0217596
0.4612	0.02200388
0.46128	0.02163606
0.46136	0.02116208
0.46144	0.0207914
0.46152	0.02069174
0.4616	0.02084668
0.46168	0.021342
0.46176	0.02185369
0.46184	0.0218969
0.46192	0.02162408
0.462	0.02146252
0.46208	0.02213206
0.46216	0.02263404
0.46224	0.02316271
0.46232	0.02355432
0.4624	0.02364919
0.46248	0.02374915
0.46256	0.02400407
0.46264	0.0238432
0.46272	0.02413364
0.4628	0.02440669
0.46288	0.0234724
0.46296	0.02272177
0.46304	0.02246853
0.46312	0.0221752
0.4632	0.02204508
0.46328	0.02180435
0.46336	0.02113361
0.46344	0.0212686
0.46352	0.02140748
0.4636	0.02147009
0.46368	0.02141425
0.46376	0.02114128
0.46384	0.02093354
0.46392	0.02085841
0.464	0.02075745
0.46408	0.0211152
0.46416	0.02134789
0.46424	0.02116889
0.46432	0.02059084
0.4644	0.02025651
0.46448	0.02004003
0.46456	0.02006868
0.46464	0.0197787
0.46472	0.01930217
0.4648	0.01891493
0.46488	0.01854222
0.46496	0.01769333
0.46504	0.01662179
0.46512	0.01589829
0.4652	0.01520018
0.46528	0.01416762
0.46536	0.01341167
0.46544	0.01316827
0.46552	0.01342541
0.4656	0.01329424
0.46568	0.01282381
0.46576	0.01248215
0.46584	0.01168998
0.46592	0.01074358
0.466	0.009730956
0.46608	0.009052722
0.46616	0.00835423
0.46624	0.007564155
0.46632	0.007291796
0.4664	0.007050261
0.46648	0.006457784
0.46656	0.005911647
0.46664	0.005440761
0.46672	0.00467051
0.4668	0.003330856
0.46688	0.002102465
0.46696	0.00123163
0.46704	0.0003375589
0.46712	-0.000185271
0.4672	-0.0006483786
0.46728	-0.001734863
0.46736	-0.003037118
0.46744	-0.004294592
0.46752	-0.005018953
0.4676	-0.005196275
0.46768	-0.005142824
0.46776	-0.006305215
0.46784	-0.007666928
0.46792	-0.008031343
0.468	-0.008141348
0.46808	-0.008728612
0.46816	-0.01019391
0.46824	-0.01147166
0.46832	-0.01238425
0.4684	-0.01377095
0.46848	-0.01450783
0.46856	-0.01507715
0.46864	-0.01581523
0.46872	-0.01627147
0.4688	-0.01638718
0.46888	-0.01618491
0.46896	-0.01630782
0.46904	-0.01679507
0.46912	-0.01746346
0.4692	-0.01701911
0.46928	-0.01692967
0.46936	-0.01748921
0.46944	-0.01801598
0.46952	-0.01875198
0.4696	-0.01940619
0.46968	-0.02021913
0.46976	-0.02075913
0.46984	-0.02045057
0.46992	-0.02011752
0.47	-0.0196564
0.47008	-0.01939992
0.47016	-0.01968526
0.47024	-0.02028533
0.47032	-0.02095621
0.4704	-0.02159167
0.47048	-0.02156593
0.47056	-0.02177759
0.47064	-0.02190463
0.47072	-0.02213355
0.4708	-0.02181253
0.47088	-0.02130246
0.47096	-0.02147063
0.47104	-0.02198234
0.47112	-0.02229297
0.4712	-0.02230662
0.47128	-0.02271988
0.47136	-0.02311513
0.47144	-0.02293891
0.47152	-0.02277934
0.4716	-0.0226972
0.47168	-0.02281554
0.47176	-0.02283178
0.47184	-0.02261812
0.47192	-0.02291371
0.472	-0.02256032
0.47208	-0.02238357
0.47216	-0.02296806
0.47224	-0.02339996
0.47232	-0.02414329
0.4724	-0.02470157
0.47248	-0.02436274
0.47256	-0.02346708
0.47264	-0.02308494
0.47272	-0.02315591
0.4728	-0.0233616
0.47288	-0.02312108
0.47296	-0.02292572
0.47304	-0.02254087
0.47312	-0.02171766
0.4732	-0.021145
0.47328	-0.02097818
0.47336	-0.021568
0.47344	-0.02236552
0.47352	-0.02254524
0.4736	-0.0216609
0.47368	-0.02009256
0.47376	-0.01828273
0.47384	-0.01765284
0.47392	-0.0182354
0.474	-0.01774409
0.47408	-0.0166688
0.47416	-0.01588184
0.47424	-0.01524018
0.47432	-0.01446255
0.4744	-0.01387758
0.47448	-0.01322705
0.47456	-0.01237811
0.47464	-0.01287758
0.47472	-0.01314948
0.4748	-0.01315623
0.47488	-0.01280434
0.47496	-0.0124844
0.47504	-0.01242885
0.47512	-0.01185153
0.4752	-0.01196651
0.47528	-0.01250661
0.47536	-0.01249773
0.47544	-0.01167697
0.47552	-0.01067309
0.4756	-0.009811072
0.47568	-0.0097609
0.47576	-0.01008634
0.47584	-0.01035602
0.47592	-0.01026562
0.476	-0.0102958
0.47608	-0.01013715
0.47616	-0.009801778
0.47624	-0.008983144
0.47632	-0.007445251
0.4764	-0.006402354
0.47648	-0.00549018
0.47656	-0.004484548
0.47664	-0.00378785
0.47672	-0.003378397
0.4768	-0.003339783
0.47688	-0.002872661
0.47696	-0.002190444
0.47704	-0.001134812
0.47712	-0.0007240955
0.4772	-0.000743727
0.47728	-0.0002406021
0.47736	0.0006538079
0.47744	0.001709852
0.47752	0.00280058
0.4776	0.003331216
0.47768	0.003753226
0.47776	0.004191474
0.47784	0.004196247
0.47792	0.003801634
0.478	0.003736469
0.47808	0.003947685
0.47816	0.004477244
0.47824	0.005206091
0.47832	0.006544201
0.4784	0.007235434
0.47848	0.007312654
0.47856	0.007535934
0.47864	0.007962637
0.47872	0.008834781
0.4788	0.009596361
0.47888	0.01033689
0.47896	0.01035619
0.47904	0.01016584
0.47912	0.01006789
0.4792	0.0100514
0.47928	0.01065943
0.47936	0.01118205
0.47944	0.01173697
0.47952	0.01281335
0.4796	0.01395666
0.47968	0.01526935
0.47976	0.01597314
0.47984	0.01611652
0.47992	0.01613326
0.48	0.01596605
0.48008	0.01597925
0.48016	0.01603569
0.48024	0.01610079
0.48032	0.01580746
0.4804	0.01533638
0.48048	0.01566247
0.48056	0.0165373
0.48064	0.0172617
0.48072	0.01783069
0.4808	0.0185012
0.48088	0.01840794
0.48096	0.01877378
0.48104	0.01939319
0.48112	0.01992621
0.4812	0.02092871
0.48128	0.02134166
0.48136	0.02122109
0.48144	0.02046955
0.48152	0.01977862
0.4816	0.01960232
0.48168	0.01959278
0.48176	0.01975536
0.48184	0.02021405
0.48192	0.02092958
0.482	0.02096392
0.48208	0.0206604
0.48216	0.02080631
0.48224	0.02141679
0.48232	0.02203985
0.4824	0.02260837
0.48248	0.02298672
0.48256	0.02334801
0.48264	0.02316762
0.48272	0.02295295
0.4828	0.02269868
0.48288	0.02258183
0.48296	0.02216498
0.48304	0.02131121
0.48312	0.02038507
0.4832	0.0197341
0.48328	0.01962472
0.48336	0.01943596
0.48344	0.01954966
0.48352	0.01973689
0.4836	0.01982388
0.48368	0.01955679
0.48376	0.0202791
0.48384	0.02032287
0.48392	0.01966627
0.484	0.0196013
0.48408	0.01881393
0.48416	0.0178728
0.48424	0.01725237
0.48432	0.01686465
0.4844	0.01697458
0.48448	0.01695466
0.48456	0.01686553
0.48464	0.0166567
0.48472	0.01596623
0.4848	0.01471576
0.48488	0.01361307
0.48496	0.01296116
0.48504	0.01246267
0.48512	0.01192261
0.4852	0.01095923
0.48528	0.01030741
0.48536	0.009542143
0.48544	0.009071627
0.48552	0.008524472
0.4856	0.008114442
0.48568	0.007886564
0.48576	0.006968906
0.48584	0.006030319
0.48592	0.005339356
0.486	0.004444858
0.48608	0.004033638
0.48616	0.003719146
0.48624	0.003729325
0.48632	0.003990654
0.4864	0.003527033
0.48648	0.003463236
0.48656	0.002512505
0.48664	0.001336209
0.48672	0.0001708162
0.4868	-0.0005948186
0.48688	-0.001215875
0.48696	-0.001440167
0.48704	-0.002037421
0.48712	-0.002611194
0.4872	-0.002411572
0.48728	-0.002194555
0.48736	-0.002513677
0.48744	-0.00271615
0.48752	-0.002827678
0.4876	-0.003149537
0.48768	-0.003954274
0.48776	-0.004764181
0.48784	-0.004683663
0.48792	-0.004062518
0.488	-0.004376276
0.48808	-0.004700936
0.48816	-0.005326638
0.48824	-0.005828297
0.48832	-0.006536973
0.4884	-0.007861644
0.48848	-0.008469811
0.48856	-0.008979595
0.48864	-0.00880148
0.48872	-0.009386254
0.4888	-0.01062957
0.48888	-0.01153684
0.48896	-0.0120106
0.48904	-0.01232961
0.48912	-0.01309581
0.4892	-0.01374295
0.48928	-0.01420898
0.48936	-0.01424328
0.48944	-0.01433871
0.48952	-0.01520998
0.4896	-0.01594541
0.48968	-0.01662596
0.48976	-0.01632778
0.48984	-0.01591452
0.48992	-0.01615194
0.49	-0.01676711
0.49008	-0.01746055
0.49016	-0.01719359
0.49024	-0.01708858
0.49032	-0.01740583
0.4904	-0.01746046
0.49048	-0.01781497
0.49056	-0.01839364
0.49064	-0.0184987
0.49072	-0.01885851
0.4908	-0.01928838
0.49088	-0.01973028
0.49096	-0.01952957
0.49104	-0.01874345
0.49112	-0.01841492
0.4912	-0.01808758
0.49128	-0.01784737
0.49136	-0.01782312
0.49144	-0.01763395
0.49152	-0.01783239
0.4916	-0.0179342
0.49168	-0.01769746
0.49176	-0.017467
0.49184	-0.01750327
0.49192	-0.01747681
0.492	-0.0177829
0.49208	-0.01775908
