Source File Name:	Scan
Signal:	Time - Ref1 Voltage - Samples

Time	Time Signal
[ s ]	[ V ]
0	8.154027e-5
8e-5	-0.0002387518
0.00016	-0.0007019081
0.00024	-0.0009739976
0.00032	-0.001016363
0.0004	-0.001186048
0.00048	-0.001753268
0.00056	-0.002392775
0.00064	-0.003059847
0.00072	-0.003494032
0.0008	-0.003805539
0.00088	-0.003997754
0.00096	-0.003705508
0.00104	-0.00395792
0.00112	-0.003995672
0.0012	-0.00454063
0.00128	-0.005197697
0.00136	-0.00600352
0.00144	-0.006314734
0.00152	-0.006278419
0.0016	-0.006745481
0.00168	-0.007280736
0.00176	-0.007447542
0.00184	-0.007645824
0.00192	-0.008418654
0.002	-0.009094463
0.00208	-0.009284408
0.00216	-0.00987186
0.00224	-0.01065426
0.00232	-0.01029149
0.0024	-0.009843595
0.00248	-0.009829502
0.00256	-0.01027949
0.00264	-0.01098629
0.00272	-0.01165208
0.0028	-0.01242421
0.00288	-0.01329306
0.00296	-0.01375679
0.00304	-0.0134692
0.00312	-0.01280958
0.0032	-0.01257335
0.00328	-0.01267087
0.00336	-0.01266494
0.00344	-0.01232121
0.00352	-0.01226543
0.0036	-0.01286153
0.00368	-0.01339107
0.00376	-0.01389862
0.00384	-0.01391134
0.00392	-0.01363241
0.004	-0.0135518
0.00408	-0.01315546
0.00416	-0.0130029
0.00424	-0.0134067
0.00432	-0.01371402
0.0044	-0.01321871
0.00448	-0.01268549
0.00456	-0.01294598
0.00464	-0.01267987
0.00472	-0.01277255
0.0048	-0.01271596
0.00488	-0.01228325
0.00496	-0.01176719
0.00504	-0.01138349
0.00512	-0.01163033
0.0052	-0.01209433
0.00528	-0.01189374
0.00536	-0.01137845
0.00544	-0.01122426
0.00552	-0.01194914
0.0056	-0.01251855
0.00568	-0.01260159
0.00576	-0.0124886
0.00584	-0.01229739
0.00592	-0.01189731
0.006	-0.01196063
0.00608	-0.01139146
0.00616	-0.01075636
0.00624	-0.01068433
0.00632	-0.01070903
0.0064	-0.01067966
0.00648	-0.01064288
0.00656	-0.01051686
0.00664	-0.01018324
0.00672	-0.009960428
0.0068	-0.009531355
0.00688	-0.00922974
0.00696	-0.008818955
0.00704	-0.008359561
0.00712	-0.007977184
0.0072	-0.00806083
0.00728	-0.008070136
0.00736	-0.007714434
0.00744	-0.007905561
0.00752	-0.008707476
0.0076	-0.008862119
0.00768	-0.008491674
0.00776	-0.007586701
0.00784	-0.007097359
0.00792	-0.006305018
0.008	-0.005757949
0.00808	-0.005252967
0.00816	-0.004891464
0.00824	-0.004492828
0.00832	-0.003977257
0.0084	-0.003359365
0.00848	-0.002421171
0.00856	-0.001775493
0.00864	-0.0006065921
0.00872	0.0004943907
0.0088	0.0008664361
0.00888	0.001412079
0.00896	0.001442115
0.00904	0.0007673042
0.00912	0.0003294872
0.0092	0.0004045073
0.00928	0.0008183717
0.00936	0.00110317
0.00944	0.001371831
0.00952	0.001767512
0.0096	0.00204668
0.00968	0.001963448
0.00976	0.001916773
0.00984	0.002291297
0.00992	0.002924635
0.01	0.003087922
0.01008	0.003513261
0.01016	0.004625232
0.01024	0.005139781
0.01032	0.004492089
0.0104	0.003837406
0.01048	0.003667672
0.01056	0.004225873
0.01064	0.003764001
0.01072	0.003204321
0.0108	0.003593127
0.01088	0.004324883
0.01096	0.005220961
0.01104	0.00599224
0.01112	0.006288602
0.0112	0.006175538
0.01128	0.006161882
0.01136	0.006262491
0.01144	0.006786545
0.01152	0.007704962
0.0116	0.00890268
0.01168	0.009156046
0.01176	0.009191044
0.01184	0.01006146
0.01192	0.01081414
0.012	0.01111612
0.01208	0.01159424
0.01216	0.01184278
0.01224	0.0114404
0.01232	0.01047184
0.0124	0.009947217
0.01248	0.009934656
0.01256	0.009528391
0.01264	0.009536866
0.01272	0.009737417
0.0128	0.01015058
0.01288	0.01077605
0.01296	0.01069954
0.01304	0.01034415
0.01312	0.01008176
0.0132	0.009938913
0.01328	0.01038572
0.01336	0.01074649
0.01344	0.01166627
0.01352	0.01190935
0.0136	0.01204753
0.01368	0.0116745
0.01376	0.01155364
0.01384	0.01167789
0.01392	0.01120859
0.014	0.01113722
0.01408	0.01099721
0.01416	0.01108565
0.01424	0.01087273
0.01432	0.0104304
0.0144	0.01012855
0.01448	0.0102648
0.01456	0.01096465
0.01464	0.01178368
0.01472	0.01153601
0.0148	0.01092806
0.01488	0.01073524
0.01496	0.01059383
0.01504	0.01125151
0.01512	0.01166993
0.0152	0.01168447
0.01528	0.01183288
0.01536	0.01172607
0.01544	0.011463
0.01552	0.01155717
0.0156	0.01182045
0.01568	0.01234053
0.01576	0.01279
0.01584	0.01344342
0.01592	0.01348796
0.016	0.01271754
0.01608	0.01267219
0.01616	0.01242078
0.01624	0.01181868
0.01632	0.01169852
0.0164	0.0113649
0.01648	0.01094725
0.01656	0.0105804
0.01664	0.01042433
0.01672	0.00996339
0.0168	0.009304806
0.01688	0.008606386
0.01696	0.008308751
0.01704	0.0080452
0.01712	0.007733181
0.0172	0.007052682
0.01728	0.006222451
0.01736	0.006214181
0.01744	0.006222527
0.01752	0.005958322
0.0176	0.00583257
0.01768	0.005786421
0.01776	0.005890557
0.01784	0.005874844
0.01792	0.005408982
0.018	0.005194137
0.01808	0.005176801
0.01816	0.004289465
0.01824	0.003821869
0.01832	0.004124107
0.0184	0.003427176
0.01848	0.00263642
0.01856	0.00201041
0.01864	0.001337083
0.01872	0.0007029924
0.0188	-3.411069e-5
0.01888	-0.0006411592
0.01896	-0.001216363
0.01904	-0.001361527
0.01912	-0.001126562
0.0192	-0.0007546512
0.01928	-0.0004833097
0.01936	-0.0004725922
0.01944	-0.0003507931
0.01952	-0.0007821487
0.0196	-0.001863852
0.01968	-0.002661505
0.01976	-0.003515897
0.01984	-0.004526133
0.01992	-0.005580952
0.02	-0.006135894
0.02008	-0.006416649
0.02016	-0.007215615
0.02024	-0.007694334
0.02032	-0.007571262
0.0204	-0.007210035
0.02048	-0.007133998
0.02056	-0.007169888
0.02064	-0.006829602
0.02072	-0.006962905
0.0208	-0.007727797
0.02088	-0.008615172
0.02096	-0.009275544
0.02104	-0.009689705
0.02112	-0.01065554
0.0212	-0.0112848
0.02128	-0.011437
0.02136	-0.01182762
0.02144	-0.01208537
0.02152	-0.01214135
0.0216	-0.01207751
0.02168	-0.01173497
0.02176	-0.01195789
0.02184	-0.01218179
0.02192	-0.01193493
0.022	-0.01160151
0.02208	-0.01143444
0.02216	-0.01174313
0.02224	-0.01173434
0.02232	-0.01115825
0.0224	-0.01072665
0.02248	-0.01080409
0.02256	-0.0107825
0.02264	-0.01106892
0.02272	-0.01110732
0.0228	-0.0106529
0.02288	-0.01018019
0.02296	-0.01013492
0.02304	-0.00994294
0.02312	-0.00999519
0.0232	-0.0103005
0.02328	-0.01084856
0.02336	-0.01069055
0.02344	-0.01039194
0.02352	-0.009507969
0.0236	-0.008968713
0.02368	-0.008910665
0.02376	-0.009609219
0.02384	-0.01053687
0.02392	-0.01074817
0.024	-0.0105969
0.02408	-0.01029329
0.02416	-0.01043536
0.02424	-0.01076114
0.02432	-0.01149332
0.0244	-0.01242976
0.02448	-0.01342643
0.02456	-0.01401007
0.02464	-0.01425974
0.02472	-0.01377498
0.0248	-0.01343359
0.02488	-0.01347294
0.02496	-0.01374555
0.02504	-0.01455572
0.02512	-0.01463198
0.0252	-0.01415418
0.02528	-0.01333918
0.02536	-0.01256885
0.02544	-0.01137053
0.02552	-0.009574188
0.0256	-0.007761599
0.02568	-0.006965956
0.02576	-0.006804225
0.02584	-0.006834528
0.02592	-0.006763651
0.026	-0.006647495
0.02608	-0.006566911
0.02616	-0.00643219
0.02624	-0.006063479
0.02632	-0.006344867
0.0264	-0.006447761
0.02648	-0.006936813
0.02656	-0.007322236
0.02664	-0.007735365
0.02672	-0.008263836
0.0268	-0.00860831
0.02688	-0.00884216
0.02696	-0.008858761
0.02704	-0.008585663
0.02712	-0.008736202
0.0272	-0.009251269
0.02728	-0.009174965
0.02736	-0.008905699
0.02744	-0.008384163
0.02752	-0.008109034
0.0276	-0.008474383
0.02768	-0.008520616
0.02776	-0.007845258
0.02784	-0.007761545
0.02792	-0.00741399
0.028	-0.006719681
0.02808	-0.005790917
0.02816	-0.004722196
0.02824	-0.004310406
0.02832	-0.004253107
0.0284	-0.003783595
0.02848	-0.003688167
0.02856	-0.003210954
0.02864	-0.003226528
0.02872	-0.003230587
0.0288	-0.002911262
0.02888	-0.001988323
0.02896	-0.0007587406
0.02904	-0.0002053522
0.02912	-0.0006460964
0.0292	-0.0006233
0.02928	-0.0005387
0.02936	-0.0007608511
0.02944	-0.001056377
0.02952	-0.001520921
0.0296	-0.001469675
0.02968	-0.001048557
0.02976	-1.092194e-5
0.02984	0.000925038
0.02992	0.001446637
0.03	0.002107148
0.03008	0.003208952
0.03016	0.003348912
0.03024	0.0032266
0.03032	0.003258399
0.0304	0.003052491
0.03048	0.003111736
0.03056	0.003204763
0.03064	0.003288408
0.03072	0.003404701
0.0308	0.003057495
0.03088	0.003044166
0.03096	0.003514053
0.03104	0.004445246
0.03112	0.005459311
0.0312	0.005759347
0.03128	0.00580076
0.03136	0.005750657
0.03144	0.005906368
0.03152	0.005920653
0.0316	0.005764524
0.03168	0.006052479
0.03176	0.006756877
0.03184	0.007741712
0.03192	0.007901191
0.032	0.008089136
0.03208	0.008221587
0.03216	0.008472308
0.03224	0.009400129
0.03232	0.009753202
0.0324	0.009703294
0.03248	0.01005354
0.03256	0.01099453
0.03264	0.01130259
0.03272	0.01125787
0.0328	0.01074598
0.03288	0.01073998
0.03296	0.01136006
0.03304	0.01148087
0.03312	0.0115363
0.0332	0.01158969
0.03328	0.01156346
0.03336	0.01177813
0.03344	0.01154479
0.03352	0.01095365
0.0336	0.01132307
0.03368	0.01174502
0.03376	0.01156637
0.03384	0.01111838
0.03392	0.01073371
0.034	0.01021004
0.03408	0.0101156
0.03416	0.0107292
0.03424	0.01069715
0.03432	0.01086937
0.0344	0.01025371
0.03448	0.01010814
0.03456	0.009849826
0.03464	0.009857934
0.03472	0.01016108
0.0348	0.01096565
0.03488	0.01165942
0.03496	0.01192559
0.03504	0.01154919
0.03512	0.01113378
0.0352	0.01100497
0.03528	0.01108759
0.03536	0.01136411
0.03544	0.01176361
0.03552	0.01172425
0.0356	0.01148743
0.03568	0.01164584
0.03576	0.01158431
0.03584	0.01193353
0.03592	0.0126043
0.036	0.01271163
0.03608	0.01262114
0.03616	0.01256787
0.03624	0.01271178
0.03632	0.01195166
0.0364	0.01100483
0.03648	0.01050159
0.03656	0.009437107
0.03664	0.009577026
0.03672	0.01001722
0.0368	0.009940037
0.03688	0.009787494
0.03696	0.009998745
0.03704	0.009705891
0.03712	0.009275331
0.0372	0.009506967
0.03728	0.009807628
0.03736	0.009913063
0.03744	0.009473448
0.03752	0.008713845
0.0376	0.00812602
0.03768	0.008284953
0.03776	0.008626795
0.03784	0.008710982
0.03792	0.00862039
0.038	0.008875766
0.03808	0.008821169
0.03816	0.009281939
0.03824	0.009137574
0.03832	0.008600176
0.0384	0.008342514
0.03848	0.007753585
0.03856	0.006609468
0.03864	0.005825921
0.03872	0.005479956
0.0388	0.005306457
0.03888	0.005197079
0.03896	0.005158504
0.03904	0.004850658
0.03912	0.004816648
0.0392	0.005064832
0.03928	0.005067254
0.03936	0.004992028
0.03944	0.003776495
0.03952	0.002727467
0.0396	0.002123257
0.03968	0.001647309
0.03976	0.001793839
0.03984	0.00120715
0.03992	0.0003967432
0.04	-0.0006552125
0.04008	-0.001144839
0.04016	-0.000839139
0.04024	-0.0007106161
0.04032	-0.0005163644
0.0404	-0.0007559831
0.04048	-0.001763258
0.04056	-0.002673927
0.04064	-0.002867913
0.04072	-0.002676207
0.0408	-0.002958989
0.04088	-0.00270385
0.04096	-0.002627741
0.04104	-0.001937185
0.04112	-0.001882512
0.0412	-0.002155824
0.04128	-0.002690939
0.04136	-0.003748568
0.04144	-0.004268922
0.04152	-0.004215314
0.0416	-0.004041838
0.04168	-0.004254684
0.04176	-0.003860879
0.04184	-0.004112102
0.04192	-0.005229528
0.042	-0.005485359
0.04208	-0.004998173
0.04216	-0.004799531
0.04224	-0.004831191
0.04232	-0.005105419
0.0424	-0.004985793
0.04248	-0.004455499
0.04256	-0.003890874
0.04264	-0.003703189
0.04272	-0.003355602
0.0428	-0.003210095
0.04288	-0.003891878
0.04296	-0.004752683
0.04304	-0.005260769
0.04312	-0.005068731
0.0432	-0.004993954
0.04328	-0.005379033
0.04336	-0.004992791
0.04344	-0.004687403
0.04352	-0.004031993
0.0436	-0.003451339
0.04368	-0.003935663
0.04376	-0.004939935
0.04384	-0.005703792
0.04392	-0.006146394
0.044	-0.006603885
0.04408	-0.007225619
0.04416	-0.008090942
0.04424	-0.008903122
0.04432	-0.009515131
0.0444	-0.00993781
0.04448	-0.01058379
0.04456	-0.01080977
0.04464	-0.01102083
0.04472	-0.01112527
0.0448	-0.01151946
0.04488	-0.01190058
0.04496	-0.01216564
0.04504	-0.01248243
0.04512	-0.01207607
0.0452	-0.01127085
0.04528	-0.01067472
0.04536	-0.01075339
0.04544	-0.01159048
0.04552	-0.01209836
0.0456	-0.01212191
0.04568	-0.01214106
0.04576	-0.01200817
0.04584	-0.01142101
0.04592	-0.01100995
0.046	-0.01076178
0.04608	-0.01049492
0.04616	-0.0103934
0.04624	-0.01074196
0.04632	-0.01060074
0.0464	-0.01018165
0.04648	-0.01054478
0.04656	-0.01135444
0.04664	-0.01187302
0.04672	-0.0123927
0.0468	-0.01281665
0.04688	-0.01222587
0.04696	-0.01165681
0.04704	-0.01154769
0.04712	-0.01199173
0.0472	-0.01223817
0.04728	-0.01239203
0.04736	-0.01219841
0.04744	-0.01183988
0.04752	-0.01163664
0.0476	-0.01135267
0.04768	-0.01056984
0.04776	-0.009409079
0.04784	-0.007940274
0.04792	-0.006976721
0.048	-0.006472585
0.04808	-0.00581111
0.04816	-0.00482537
0.04824	-0.004175654
0.04832	-0.004165861
0.0484	-0.003406493
0.04848	-0.00263444
0.04856	-0.002151099
0.04864	-0.001491629
0.04872	-0.001357654
0.0488	-0.001768386
0.04888	-0.002530085
0.04896	-0.002894774
0.04904	-0.003198322
0.04912	-0.003753407
0.0492	-0.003714294
0.04928	-0.004096221
0.04936	-0.004221459
0.04944	-0.004553894
0.04952	-0.004875909
0.0496	-0.005095024
0.04968	-0.004196472
0.04976	-0.003771043
0.04984	-0.003764466
0.04992	-0.003661887
0.05	-0.003266935
0.05008	-0.003107807
0.05016	-0.002654909
0.05024	-0.001875159
0.05032	-0.001038766
0.0504	-0.0001492939
0.05048	0.0005845207
0.05056	0.001348467
0.05064	0.001539489
0.05072	0.002240099
0.0508	0.003520726
0.05088	0.004596051
0.05096	0.005019156
0.05104	0.005084811
0.05112	0.005693466
0.0512	0.006995599
0.05128	0.008135834
0.05136	0.008454468
0.05144	0.007897127
0.05152	0.007801582
0.0516	0.008469627
0.05168	0.008822477
0.05176	0.008791889
0.05184	0.008849598
0.05192	0.00938226
0.052	0.01001569
0.05208	0.01002122
0.05216	0.009840787
0.05224	0.009817646
0.05232	0.01010188
0.0524	0.01042133
0.05248	0.01035879
0.05256	0.01004235
0.05264	0.009934853
0.05272	0.009475418
0.0528	0.009434846
0.05288	0.009695779
0.05296	0.009390155
0.05304	0.009190076
0.05312	0.009300806
0.0532	0.009240495
0.05328	0.009239981
0.05336	0.009341694
0.05344	0.009912772
0.05352	0.01001261
0.0536	0.009691339
0.05368	0.009221022
0.05376	0.008855103
0.05384	0.009246972
0.05392	0.01031547
0.054	0.0117224
0.05408	0.01217549
0.05416	0.01213341
0.05424	0.01201876
0.05432	0.01196713
0.0544	0.01204466
0.05448	0.01293137
0.05456	0.01430456
0.05464	0.01515561
0.05472	0.01450515
0.0548	0.01405627
0.05488	0.01446432
0.05496	0.01447607
0.05504	0.01430262
0.05512	0.01464115
0.0552	0.01456688
0.05528	0.01407145
0.05536	0.01371097
0.05544	0.01406893
0.05552	0.01394551
0.0556	0.01398016
0.05568	0.01364216
0.05576	0.01379834
0.05584	0.01334288
0.05592	0.01275632
0.056	0.01272239
0.05608	0.01329519
0.05616	0.01294727
0.05624	0.01268839
0.05632	0.01243008
0.0564	0.01191727
0.05648	0.01200034
0.05656	0.01283176
0.05664	0.01297703
0.05672	0.01263329
0.0568	0.01240667
0.05688	0.01199637
0.05696	0.01121052
0.05704	0.009681581
0.05712	0.009194843
0.0572	0.009027913
0.05728	0.008437347
0.05736	0.007996241
0.05744	0.00710802
0.05752	0.00643243
0.0576	0.005815683
0.05768	0.005315694
0.05776	0.005457776
0.05784	0.004535052
0.05792	0.003698904
0.058	0.003930476
0.05808	0.004522894
0.05816	0.004465184
0.05824	0.004151973
0.05832	0.003979402
0.0584	0.003536495
0.05848	0.003221041
0.05856	0.002490588
0.05864	0.001022676
0.05872	-3.104334e-6
0.0588	-0.0005488594
0.05888	-0.0004830138
0.05896	-0.001007918
0.05904	-0.001495916
0.05912	-0.001837436
0.0592	-0.001977958
0.05928	-0.002086445
0.05936	-0.002435093
0.05944	-0.002745795
0.05952	-0.00274973
0.0596	-0.003121533
0.05968	-0.003484417
0.05976	-0.003252871
0.05984	-0.003803966
0.05992	-0.003471329
0.06	-0.002360139
0.06008	-0.001146501
0.06016	3.017172e-5
0.06024	-7.651247e-5
0.06032	-0.001324863
0.0604	-0.001727216
0.06048	-0.002104772
0.06056	-0.002902939
0.06064	-0.003240635
0.06072	-0.003387191
0.0608	-0.004173214
0.06088	-0.004892594
0.06096	-0.005380827
0.06104	-0.005978022
0.06112	-0.006419565
0.0612	-0.006557909
0.06128	-0.007245898
0.06136	-0.007958221
0.06144	-0.008277074
0.06152	-0.008416763
0.0616	-0.008977486
0.06168	-0.00995727
0.06176	-0.0108881
0.06184	-0.0116413
0.06192	-0.012044
0.062	-0.01229933
0.06208	-0.01264264
0.06216	-0.01297092
0.06224	-0.01317966
0.06232	-0.01341567
0.0624	-0.01373976
0.06248	-0.01391148
0.06256	-0.01368324
0.06264	-0.01382792
0.06272	-0.01498562
0.0628	-0.01564009
0.06288	-0.0158086
0.06296	-0.01548406
0.06304	-0.01508169
0.06312	-0.01479259
0.0632	-0.01495031
0.06328	-0.01570159
0.06336	-0.0163044
0.06344	-0.01716747
0.06352	-0.01800117
0.0636	-0.01833282
0.06368	-0.01789126
0.06376	-0.01787578
0.06384	-0.01760984
0.06392	-0.01686084
0.064	-0.01681263
0.06408	-0.01667702
0.06416	-0.01749267
0.06424	-0.01801865
0.06432	-0.01867212
0.0644	-0.019664
0.06448	-0.02001718
0.06456	-0.02026968
0.06464	-0.01985873
0.06472	-0.01908859
0.0648	-0.01856541
0.06488	-0.01840657
0.06496	-0.0179915
0.06504	-0.01727971
0.06512	-0.01684348
0.0652	-0.01693834
0.06528	-0.01703339
0.06536	-0.01708382
0.06544	-0.01781042
0.06552	-0.01812883
0.0656	-0.01871049
0.06568	-0.01833645
0.06576	-0.01769509
0.06584	-0.01783031
0.06592	-0.01778436
0.066	-0.0175726
0.06608	-0.01728608
0.06616	-0.01710903
0.06624	-0.01651636
0.06632	-0.01515369
0.0664	-0.01453248
0.06648	-0.01442747
0.06656	-0.01414
0.06664	-0.01373436
0.06672	-0.01399733
0.0668	-0.01380329
0.06688	-0.01347029
0.06696	-0.01312343
0.06704	-0.01301122
0.06712	-0.01247391
0.0672	-0.01175785
0.06728	-0.01147509
0.06736	-0.01157867
0.06744	-0.01142803
0.06752	-0.01065164
0.0676	-0.009922875
0.06768	-0.00930011
0.06776	-0.008435479
0.06784	-0.007705139
0.06792	-0.00787739
0.068	-0.007483855
0.06808	-0.007148161
0.06816	-0.005946024
0.06824	-0.004550061
0.06832	-0.003481243
0.0684	-0.003313542
0.06848	-0.003223321
0.06856	-0.002735194
0.06864	-0.002939584
0.06872	-0.002614189
0.0688	-0.002286791
0.06888	-0.001740996
0.06896	-0.0008855122
0.06904	-0.0005690288
0.06912	-0.0004190652
0.0692	-0.0007268476
0.06928	-0.0005423454
0.06936	-2.517329e-5
0.06944	0.0004335138
0.06952	0.001129479
0.0696	0.00259133
0.06968	0.003431398
0.06976	0.004161106
0.06984	0.00503716
0.06992	0.005643767
0.07	0.005377535
0.07008	0.004460819
0.07016	0.004278506
0.07024	0.004263988
0.07032	0.004367062
0.0704	0.005157873
0.07048	0.00567912
0.07056	0.006036643
0.07064	0.006220137
0.07072	0.005938344
0.0708	0.005390799
0.07088	0.005482862
0.07096	0.00620562
0.07104	0.006695058
0.07112	0.006922873
0.0712	0.007417084
0.07128	0.008728544
0.07136	0.00959792
0.07144	0.009556638
0.07152	0.009013476
0.0716	0.008126522
0.07168	0.007541103
0.07176	0.008148279
0.07184	0.008856501
0.07192	0.00980292
0.072	0.01082231
0.07208	0.01154416
0.07216	0.01186067
0.07224	0.01222527
0.07232	0.01244874
0.0724	0.01308106
0.07248	0.01326523
0.07256	0.01317576
0.07264	0.01335907
0.07272	0.01317446
0.0728	0.01288132
0.07288	0.01229068
0.07296	0.0118246
0.07304	0.01215026
0.07312	0.01245581
0.0732	0.01263385
0.07328	0.01199475
0.07336	0.01098623
0.07344	0.01101136
0.07352	0.01115063
0.0736	0.01108038
0.07368	0.01030907
0.07376	0.01053106
0.07384	0.01166672
0.07392	0.01260922
0.074	0.0128538
0.07408	0.01319483
0.07416	0.01392438
0.07424	0.01478332
0.07432	0.01488837
0.0744	0.01473175
0.07448	0.01494921
0.07456	0.01507243
0.07464	0.01535126
0.07472	0.01569268
0.0748	0.01608818
0.07488	0.01628501
0.07496	0.01656823
0.07504	0.0164034
0.07512	0.01607455
0.0752	0.01545802
0.07528	0.01588753
0.07536	0.01585828
0.07544	0.01571534
0.07552	0.01583913
0.0756	0.01527032
0.07568	0.01564665
0.07576	0.01607435
0.07584	0.01558211
0.07592	0.01438434
0.076	0.01365833
0.07608	0.013755
0.07616	0.01410508
0.07624	0.01442636
0.07632	0.01441522
0.0764	0.0146782
0.07648	0.01474008
0.07656	0.01527249
0.07664	0.01514047
0.07672	0.01541888
0.0768	0.0160083
0.07688	0.01601277
0.07696	0.0156605
0.07704	0.01525224
0.07712	0.01553123
0.0772	0.01641928
0.07728	0.01656194
0.07736	0.01611699
0.07744	0.01598194
0.07752	0.01569599
0.0776	0.01466911
0.07768	0.01430936
0.07776	0.01459276
0.07784	0.01443559
0.07792	0.01433438
0.078	0.01395183
0.07808	0.0133294
0.07816	0.01250956
0.07824	0.01190569
0.07832	0.01112653
0.0784	0.01030833
0.07848	0.009795832
0.07856	0.008635827
0.07864	0.007412584
0.07872	0.006351768
0.0788	0.005155189
0.07888	0.004918012
0.07896	0.004661355
0.07904	0.004024111
0.07912	0.003825485
0.0792	0.003636244
0.07928	0.003658984
0.07936	0.003972024
0.07944	0.003791658
0.07952	0.003092989
0.0796	0.001610463
0.07968	0.0006776192
0.07976	0.0008965664
0.07984	0.001511533
0.07992	0.001476983
0.08	0.001021402
0.08008	-6.311459e-5
0.08016	-0.0007611474
0.08024	-0.0007035804
0.08032	-0.0009797817
0.0804	-0.001048363
0.08048	-0.0005106792
0.08056	0.0003789747
0.08064	0.0003067745
0.08072	-0.0004445212
0.0808	-0.001286613
0.08088	-0.001987973
0.08096	-0.002498133
0.08104	-0.002993323
0.08112	-0.003326092
0.0812	-0.004176821
0.08128	-0.005471247
0.08136	-0.006207624
0.08144	-0.006697852
0.08152	-0.007810177
0.0816	-0.008419818
0.08168	-0.008240379
0.08176	-0.00879236
0.08184	-0.009142136
0.08192	-0.009183903
0.082	-0.008875703
0.08208	-0.009107667
0.08216	-0.009286023
0.08224	-0.009088225
0.08232	-0.009278373
0.0824	-0.01000461
0.08248	-0.01060934
0.08256	-0.01052162
0.08264	-0.009904884
0.08272	-0.00957453
0.0828	-0.009886114
0.08288	-0.01001672
0.08296	-0.01066856
0.08304	-0.01152861
0.08312	-0.01175028
0.0832	-0.01141836
0.08328	-0.01128726
0.08336	-0.01143156
0.08344	-0.01123746
0.08352	-0.01093318
0.0836	-0.01108014
0.08368	-0.01183168
0.08376	-0.01223325
0.08384	-0.01217998
0.08392	-0.01196428
0.084	-0.0118903
0.08408	-0.01185152
0.08416	-0.01210045
0.08424	-0.01270089
0.08432	-0.01325215
0.0844	-0.01401886
0.08448	-0.01460021
0.08456	-0.01414232
0.08464	-0.01416655
0.08472	-0.01482161
0.0848	-0.01502186
0.08488	-0.01535433
0.08496	-0.01513323
0.08504	-0.01440505
0.08512	-0.01367766
0.0852	-0.01363008
0.08528	-0.01376997
0.08536	-0.01336015
0.08544	-0.01233908
0.08552	-0.01204812
0.0856	-0.01208959
0.08568	-0.01200044
0.08576	-0.01155522
0.08584	-0.0112446
0.08592	-0.01127463
0.086	-0.01190332
0.08608	-0.01227042
0.08616	-0.01250323
0.08624	-0.01251945
0.08632	-0.01288543
0.0864	-0.01290351
0.08648	-0.01248936
0.08656	-0.01242035
0.08664	-0.01186659
0.08672	-0.01171137
0.0868	-0.01163697
0.08688	-0.01166976
0.08696	-0.01152511
0.08704	-0.01106379
0.08712	-0.01114257
0.0872	-0.01091122
0.08728	-0.01031727
0.08736	-0.009968863
0.08744	-0.009719608
0.08752	-0.009659547
0.0876	-0.009540764
0.08768	-0.008869515
0.08776	-0.008390116
0.08784	-0.007493961
0.08792	-0.007056029
0.088	-0.007339984
0.08808	-0.007736145
0.08816	-0.00793786
0.08824	-0.008452183
0.08832	-0.00755228
0.0884	-0.006601888
0.08848	-0.00574562
0.08856	-0.005331636
0.08864	-0.004942577
0.08872	-0.004848331
0.0888	-0.004726709
0.08888	-0.004890772
0.08896	-0.005412219
0.08904	-0.005189112
0.08912	-0.004799176
0.0892	-0.00456074
0.08928	-0.003796847
0.08936	-0.003559291
0.08944	-0.003153847
0.08952	-0.002981577
0.0896	-0.003111981
0.08968	-0.002444573
0.08976	-0.001301801
0.08984	0.0001453367
0.08992	0.00114216
0.09	0.001686726
0.09008	0.00257119
0.09016	0.002293529
0.09024	0.001130514
0.09032	0.0007660109
0.0904	0.000969482
0.09048	0.001466743
0.09056	0.00191649
0.09064	0.002102105
0.09072	0.00231781
0.0908	0.003042564
0.09088	0.003436457
0.09096	0.003347091
0.09104	0.003320946
0.09112	0.003846159
0.0912	0.004185186
0.09128	0.004680236
0.09136	0.005647262
0.09144	0.005912999
0.09152	0.005711851
0.0916	0.0056277
0.09168	0.005801295
0.09176	0.005705291
0.09184	0.006191843
0.09192	0.006538454
0.092	0.007402775
0.09208	0.008242883
0.09216	0.009001122
0.09224	0.00916863
0.09232	0.009101867
0.0924	0.01014092
0.09248	0.01125903
0.09256	0.01195768
0.09264	0.01246633
0.09272	0.0130137
0.0928	0.01380071
0.09288	0.01477575
0.09296	0.01530738
0.09304	0.01572214
0.09312	0.01595859
0.0932	0.01609911
0.09328	0.01558855
0.09336	0.01567343
0.09344	0.01622029
0.09352	0.01644206
0.0936	0.01688007
0.09368	0.01759779
0.09376	0.01804277
0.09384	0.01786646
0.09392	0.01752532
0.094	0.01721381
0.09408	0.01717557
0.09416	0.01732971
0.09424	0.01770585
0.09432	0.01823902
0.0944	0.01896695
0.09448	0.01960258
0.09456	0.01968687
0.09464	0.02009359
0.09472	0.02044862
0.0948	0.02053023
0.09488	0.02034129
0.09496	0.0195714
0.09504	0.01888807
0.09512	0.01836486
0.0952	0.01786205
0.09528	0.01779446
0.09536	0.01819775
0.09544	0.01822918
0.09552	0.01802419
0.0956	0.01747791
0.09568	0.01726305
0.09576	0.01658571
0.09584	0.01624313
0.09592	0.01591993
0.096	0.01600577
0.09608	0.01554129
0.09616	0.01474008
0.09624	0.01449019
0.09632	0.01415927
0.0964	0.01333254
0.09648	0.01301822
0.09656	0.01308153
0.09664	0.01336061
0.09672	0.01363094
0.0968	0.01386215
0.09688	0.01389063
0.09696	0.01372366
0.09704	0.01353502
0.09712	0.01373182
0.0972	0.01394318
0.09728	0.01342156
0.09736	0.01299957
0.09744	0.01225157
0.09752	0.01125507
0.0976	0.01048326
0.09768	0.01005857
0.09776	0.009987211
0.09784	0.009290684
0.09792	0.008433857
0.098	0.007755481
0.09808	0.006739281
0.09816	0.005549472
0.09824	0.004501271
0.09832	0.003858336
0.0984	0.003392242
0.09848	0.0031565
0.09856	0.003018555
0.09864	0.00270854
0.09872	0.001968314
0.0988	0.0004351352
0.09888	-0.0005006825
0.09896	-0.001586017
0.09904	-0.002943388
0.09912	-0.004042069
0.0992	-0.005105209
0.09928	-0.006014567
0.09936	-0.005948203
0.09944	-0.005993086
0.09952	-0.006096699
0.0996	-0.005947254
0.09968	-0.005786245
0.09976	-0.00627543
0.09984	-0.006206288
0.09992	-0.006587679
0.1	-0.007675353
0.10008	-0.008853111
0.10016	-0.009684093
0.10024	-0.01030121
0.10032	-0.0104006
0.1004	-0.01013934
0.10048	-0.009909696
0.10056	-0.01008131
0.10064	-0.009806784
0.10072	-0.009018639
0.1008	-0.008813586
0.10088	-0.00889887
0.10096	-0.008251673
0.10104	-0.00807494
0.10112	-0.009042758
0.1012	-0.009715839
0.10128	-0.01010739
0.10136	-0.009787406
0.10144	-0.009090364
0.10152	-0.008817933
0.1016	-0.009271409
0.10168	-0.009983407
0.10176	-0.01047401
0.10184	-0.01010268
0.10192	-0.009356092
0.102	-0.009050336
0.10208	-0.00913256
0.10216	-0.009264611
0.10224	-0.009768316
0.10232	-0.01038507
0.1024	-0.01138992
0.10248	-0.0124632
0.10256	-0.01297722
0.10264	-0.01357251
0.10272	-0.013909
0.1028	-0.01334918
0.10288	-0.012894
0.10296	-0.01310848
0.10304	-0.01319309
0.10312	-0.01297608
0.1032	-0.01325301
0.10328	-0.01321429
0.10336	-0.01296898
0.10344	-0.01265077
0.10352	-0.01263712
0.1036	-0.01291601
0.10368	-0.01322282
0.10376	-0.01335566
0.10384	-0.01363382
0.10392	-0.01399932
0.104	-0.0139534
0.10408	-0.01364699
0.10416	-0.01395388
0.10424	-0.01481267
0.10432	-0.01522786
0.1044	-0.01521224
0.10448	-0.0153241
0.10456	-0.01511362
0.10464	-0.01492838
0.10472	-0.01437752
0.1048	-0.01414084
0.10488	-0.01424825
0.10496	-0.01422739
0.10504	-0.01414627
0.10512	-0.01448959
0.1052	-0.01504627
0.10528	-0.01524064
0.10536	-0.01476277
0.10544	-0.0149067
0.10552	-0.01511824
0.1056	-0.01479723
0.10568	-0.0146104
0.10576	-0.01432529
0.10584	-0.01363471
0.10592	-0.01271991
0.106	-0.01219951
0.10608	-0.01207705
0.10616	-0.0123659
0.10624	-0.01280235
0.10632	-0.01216825
0.1064	-0.01178381
0.10648	-0.01162138
0.10656	-0.01111314
0.10664	-0.010511
0.10672	-0.009548035
0.1068	-0.00872947
0.10688	-0.008410914
0.10696	-0.008561932
0.10704	-0.008754596
0.10712	-0.008468313
0.1072	-0.00829686
0.10728	-0.008193822
0.10736	-0.007743184
0.10744	-0.007761986
0.10752	-0.007741983
0.1076	-0.007554252
0.10768	-0.007163204
0.10776	-0.00663475
0.10784	-0.007339702
0.10792	-0.008595096
0.108	-0.00906307
0.10808	-0.008494309
0.10816	-0.007915289
0.10824	-0.007737966
0.10832	-0.00755906
0.1084	-0.006976579
0.10848	-0.00542369
0.10856	-0.004753235
0.10864	-0.004048323
0.10872	-0.003655124
0.1088	-0.003043022
0.10888	-0.001942348
0.10896	-0.001809545
0.10904	-0.002535034
0.10912	-0.003425645
0.1092	-0.003699606
0.10928	-0.004092257
0.10936	-0.004125818
0.10944	-0.003295187
0.10952	-0.00281729
0.1096	-0.002185549
0.10968	-0.001521825
0.10976	-0.0008690537
0.10984	-0.0007488613
0.10992	-0.0007168931
0.11	-0.0002550443
0.11008	0.0003010293
0.11016	0.001886546
0.11024	0.00257533
0.11032	0.002450547
0.1104	0.002697709
0.11048	0.002615435
0.11056	0.003111134
0.11064	0.004022988
0.11072	0.003981316
0.1108	0.003793838
0.11088	0.003584072
0.11096	0.003175549
0.11104	0.002765328
0.11112	0.002921693
0.1112	0.003288968
0.11128	0.003605977
0.11136	0.003703801
0.11144	0.003855177
0.11152	0.003923503
0.1116	0.003826883
0.11168	0.00405162
0.11176	0.004657165
0.11184	0.005667237
0.11192	0.006035047
0.112	0.005919056
0.11208	0.006085692
0.11216	0.006260831
0.11224	0.006439536
0.11232	0.006164917
0.1124	0.005996014
0.11248	0.006160113
0.11256	0.006054115
0.11264	0.006214968
0.11272	0.006785607
0.1128	0.006752813
0.11288	0.007351161
0.11296	0.008357557
0.11304	0.008802171
0.11312	0.009436438
0.1132	0.009576061
0.11328	0.009282364
0.11336	0.009440013
0.11344	0.00921249
0.11352	0.009026783
0.1136	0.008988942
0.11368	0.008596283
0.11376	0.009060492
0.11384	0.009731866
0.11392	0.01030402
0.114	0.01065143
0.11408	0.01012242
0.11416	0.01014329
0.11424	0.01019105
0.11432	0.009931565
0.1144	0.01015539
0.11448	0.01116389
0.11456	0.01198937
0.11464	0.01300526
0.11472	0.01351171
0.1148	0.01345363
0.11488	0.01341148
0.11496	0.01287311
0.11504	0.0122049
0.11512	0.01169983
0.1152	0.01126377
0.11528	0.01139035
0.11536	0.01155043
0.11544	0.01150127
0.11552	0.01111375
0.1156	0.01018497
0.11568	0.009436514
0.11576	0.0091588
0.11584	0.009930901
0.11592	0.0107944
0.116	0.01073658
0.11608	0.0103403
0.11616	0.01097158
0.11624	0.01084605
0.11632	0.01057565
0.1164	0.01019139
0.11648	0.01029018
0.11656	0.01058933
0.11664	0.01023265
0.11672	0.01041307
0.1168	0.01046755
0.11688	0.01061842
0.11696	0.01053139
0.11704	0.01016597
0.11712	0.00997688
0.1172	0.009865052
0.11728	0.01024969
0.11736	0.01053555
0.11744	0.01024263
0.11752	0.01027913
0.1176	0.01091806
0.11768	0.01118851
0.11776	0.01073956
0.11784	0.009618795
0.11792	0.008552541
0.118	0.007725156
0.11808	0.006970049
0.11816	0.006162225
0.11824	0.005246113
0.11832	0.004514157
0.1184	0.003951372
0.11848	0.003933956
0.11856	0.004800237
0.11864	0.005247877
0.11872	0.004861408
0.1188	0.004304506
0.11888	0.003364567
0.11896	0.002486465
0.11904	0.002128736
0.11912	0.001574907
0.1192	0.001456585
0.11928	0.001146361
0.11936	0.000810971
0.11944	0.001056239
0.11952	0.001457476
0.1196	0.0011133
0.11968	0.001045046
0.11976	0.001126403
0.11984	0.0007824441
0.11992	9.308105e-5
0.12	-0.0004240508
0.12008	-0.00111809
0.12016	-0.001877918
0.12024	-0.001610722
0.12032	-0.002222715
0.1204	-0.003266708
0.12048	-0.004384116
0.12056	-0.005229399
0.12064	-0.00519353
0.12072	-0.004884334
0.1208	-0.0046274
0.12088	-0.004762769
0.12096	-0.005380217
0.12104	-0.005861871
0.12112	-0.006652104
0.1212	-0.006544427
0.12128	-0.005765251
0.12136	-0.00485002
0.12144	-0.004575188
0.12152	-0.004164248
0.1216	-0.00433069
0.12168	-0.005278457
0.12176	-0.005407068
0.12184	-0.005587619
0.12192	-0.005249748
0.122	-0.005027454
0.12208	-0.005102186
0.12216	-0.004910803
0.12224	-0.004769905
0.12232	-0.004483703
0.1224	-0.004062253
0.12248	-0.003809614
0.12256	-0.003066615
0.12264	-0.001709004
0.12272	-0.0004405806
0.1228	0.000617507
0.12288	0.002132275
0.12296	0.003045466
0.12304	0.003838604
0.12312	0.004647776
0.1232	0.005250508
0.12328	0.005470093
0.12336	0.005572086
0.12344	0.006014864
0.12352	0.0061724
0.1236	0.005882715
0.12368	0.005638564
0.12376	0.005355934
0.12384	0.004450559
0.12392	0.0029247
0.124	0.001917444
0.12408	0.001801918
0.12416	0.00177546
0.12424	0.001386944
0.12432	0.001037775
0.1244	0.0002938634
0.12448	-0.000690001
0.12456	-0.001280399
0.12464	-0.001596545
0.12472	-0.001325772
0.1248	-0.001067462
0.12488	-0.001262901
0.12496	-0.001977824
0.12504	-0.002574011
0.12512	-0.003510546
0.1252	-0.004414128
0.12528	-0.005406781
0.12536	-0.005345565
0.12544	-0.00541987
0.12552	-0.0056568
0.1256	-0.00594482
0.12568	-0.006444962
0.12576	-0.00685983
0.12584	-0.007568312
0.12592	-0.008174484
0.126	-0.009256412
0.12608	-0.01026416
0.12616	-0.01087704
0.12624	-0.0108498
0.12632	-0.01119372
0.1264	-0.01196109
0.12648	-0.01187235
0.12656	-0.01189719
0.12664	-0.01201778
0.12672	-0.01251025
0.1268	-0.01296826
0.12688	-0.0129081
0.12696	-0.01336017
0.12704	-0.01364486
0.12712	-0.01349746
0.1272	-0.01320222
0.12728	-0.01283124
0.12736	-0.01280968
0.12744	-0.01301071
0.12752	-0.01332981
0.1276	-0.01365437
0.12768	-0.0129535
0.12776	-0.01210737
0.12784	-0.01221172
0.12792	-0.01221747
0.128	-0.01199995
0.12808	-0.01204275
0.12816	-0.01225796
0.12824	-0.01245551
0.12832	-0.01265518
0.1284	-0.01251902
0.12848	-0.011978
0.12856	-0.01165733
0.12864	-0.01194957
0.12872	-0.01228777
0.1288	-0.01248824
0.12888	-0.0125051
0.12896	-0.01254436
0.12904	-0.01237831
0.12912	-0.01222306
0.1292	-0.01181883
0.12928	-0.01148684
0.12936	-0.01169331
0.12944	-0.01212624
0.12952	-0.01230435
0.1296	-0.01349592
0.12968	-0.01392461
0.12976	-0.01409677
0.12984	-0.01395594
0.12992	-0.01318975
0.13	-0.01248513
0.13008	-0.01185971
0.13016	-0.01118568
0.13024	-0.0103745
0.13032	-0.01017865
0.1304	-0.009944269
0.13048	-0.009376965
0.13056	-0.008661086
0.13064	-0.008955743
0.13072	-0.009049124
0.1308	-0.008814778
0.13088	-0.008282222
0.13096	-0.007477964
0.13104	-0.006657191
0.13112	-0.00582317
0.1312	-0.00478771
0.13128	-0.003573579
0.13136	-0.002903963
0.13144	-0.002541193
0.13152	-0.001432115
0.1316	-0.0007339834
0.13168	-0.0005710798
0.13176	-0.0001951043
0.13184	0.000584657
0.13192	0.001219468
0.132	0.002167825
0.13208	0.003144346
0.13216	0.004437493
0.13224	0.005241472
0.13232	0.005208621
0.1324	0.005253481
0.13248	0.00512987
0.13256	0.005321159
0.13264	0.00611661
0.13272	0.005994745
0.1328	0.005893499
0.13288	0.005845377
0.13296	0.006136294
0.13304	0.006950091
0.13312	0.00774758
0.1332	0.00832885
0.13328	0.008627837
0.13336	0.008429389
0.13344	0.008264701
0.13352	0.00844233
0.1336	0.008687614
0.13368	0.008478604
0.13376	0.008185104
0.13384	0.008727416
0.13392	0.009339413
0.134	0.009623072
0.13408	0.009784956
0.13416	0.009929109
0.13424	0.009641282
0.13432	0.008791788
0.1344	0.008307042
0.13448	0.008876932
0.13456	0.00949205
0.13464	0.009781552
0.13472	0.01012225
0.1348	0.009947734
0.13488	0.009952362
0.13496	0.01064277
0.13504	0.01154234
0.13512	0.01227923
0.1352	0.01204502
0.13528	0.01205977
0.13536	0.01227891
0.13544	0.01243067
0.13552	0.01191053
0.1356	0.01171858
0.13568	0.01181848
0.13576	0.01318307
0.13584	0.01445239
0.13592	0.01422535
0.136	0.01438333
0.13608	0.01452579
0.13616	0.01379675
0.13624	0.01320238
0.13632	0.01294507
0.1364	0.01224986
0.13648	0.01199168
0.13656	0.01206083
0.13664	0.01150285
0.13672	0.01102532
0.1368	0.01013274
0.13688	0.008622343
0.13696	0.007331958
0.13704	0.00666218
0.13712	0.006363647
0.1372	0.006367048
0.13728	0.005384776
0.13736	0.004478639
0.13744	0.004191292
0.13752	0.003149109
0.1376	0.00207875
0.13768	0.001350712
0.13776	0.001395608
0.13784	0.0007982935
0.13792	0.0006684263
0.138	0.0007762648
0.13808	0.0004917855
0.13816	0.0006132027
0.13824	0.0004912224
0.13832	-0.0005365237
0.1384	-0.001016401
0.13848	-0.0007329336
0.13856	-0.0007038501
0.13864	-0.001128712
0.13872	-0.001778828
0.1388	-0.002729711
0.13888	-0.003212595
0.13896	-0.002806345
0.13904	-0.001951138
0.13912	-0.001402548
0.1392	-0.0008823961
0.13928	-0.0005486626
0.13936	-0.0001404349
0.13944	2.265291e-5
0.13952	-0.0007957839
0.1396	-0.001335226
0.13968	-0.001692593
0.13976	-0.002202674
0.13984	-0.002818046
0.13992	-0.00324796
0.14	-0.002897821
0.14008	-0.002706288
0.14016	-0.002238312
0.14024	-0.001649419
0.14032	-0.001311482
0.1404	-0.001619926
0.14048	-0.002408908
0.14056	-0.003371163
0.14064	-0.003939999
0.14072	-0.003791303
0.1408	-0.004287983
0.14088	-0.00534648
0.14096	-0.005857683
0.14104	-0.006117266
0.14112	-0.006669921
0.1412	-0.00780116
0.14128	-0.008654768
0.14136	-0.008793215
0.14144	-0.008658839
0.14152	-0.008078785
0.1416	-0.007919056
0.14168	-0.008066542
0.14176	-0.008588295
0.14184	-0.009174029
0.14192	-0.009114228
0.142	-0.008404677
0.14208	-0.008190713
0.14216	-0.007964152
0.14224	-0.008167785
0.14232	-0.00861353
0.1424	-0.008743983
0.14248	-0.008780839
0.14256	-0.008201923
0.14264	-0.007828814
0.14272	-0.007460327
0.1428	-0.007619814
0.14288	-0.008097126
0.14296	-0.008152113
0.14304	-0.007555661
0.14312	-0.007141568
0.1432	-0.0070829
0.14328	-0.007287773
0.14336	-0.007581099
0.14344	-0.008104535
0.14352	-0.008411426
0.1436	-0.00896452
0.14368	-0.009569849
0.14376	-0.009850662
0.14384	-0.009787642
0.14392	-0.009437608
0.144	-0.008727678
0.14408	-0.008596371
0.14416	-0.009126301
0.14424	-0.009553566
0.14432	-0.0101115
0.1444	-0.01071863
0.14448	-0.01096822
0.14456	-0.01079142
0.14464	-0.01091019
0.14472	-0.01099737
0.1448	-0.01100347
0.14488	-0.01112892
0.14496	-0.01132505
0.14504	-0.01129415
0.14512	-0.01097994
0.1452	-0.01054449
0.14528	-0.01067972
0.14536	-0.01079311
0.14544	-0.009974302
0.14552	-0.009540417
0.1456	-0.009863853
0.14568	-0.01089694
0.14576	-0.01177214
0.14584	-0.01186347
0.14592	-0.01110419
0.146	-0.01021782
0.14608	-0.009603285
0.14616	-0.009514263
0.14624	-0.008979458
0.14632	-0.00843701
0.1464	-0.007924526
0.14648	-0.007889282
0.14656	-0.008668555
0.14664	-0.008602292
0.14672	-0.008369701
0.1468	-0.007503367
0.14688	-0.006983701
0.14696	-0.006744275
0.14704	-0.006967433
0.14712	-0.006376942
0.1472	-0.005850429
0.14728	-0.005739107
0.14736	-0.005386196
0.14744	-0.005035066
0.14752	-0.004669616
0.1476	-0.004683039
0.14768	-0.004382474
0.14776	-0.004086732
0.14784	-0.004093504
0.14792	-0.003474545
0.148	-0.003108196
0.14808	-0.002827095
0.14816	-0.003265257
0.14824	-0.003759446
0.14832	-0.003319475
0.1484	-0.002720178
0.14848	-0.002083583
0.14856	-0.001649335
0.14864	-0.001293633
0.14872	-0.00133502
0.1488	-0.001720322
0.14888	-0.00172791
0.14896	-0.001200656
0.14904	-0.00123136
0.14912	-0.0006775175
0.1492	0.000279994
0.14928	0.001127545
0.14936	0.001509176
0.14944	0.001803159
0.14952	0.001433231
0.1496	0.0009584357
0.14968	0.0005846448
0.14976	0.001255947
0.14984	0.00191739
0.14992	0.002753505
0.15	0.003461044
0.15008	0.004092754
0.15016	0.004139083
0.15024	0.00447326
0.15032	0.005758269
0.1504	0.006927327
0.15048	0.007113286
0.15056	0.007570943
0.15064	0.007976894
0.15072	0.009264659
0.1508	0.0104484
0.15088	0.01103705
0.15096	0.01148694
0.15104	0.01208302
0.15112	0.01241869
0.1512	0.0122668
0.15128	0.01237075
0.15136	0.01209849
0.15144	0.01239966
0.15152	0.01249344
0.1516	0.01224849
0.15168	0.0121688
0.15176	0.01206867
0.15184	0.0118452
0.15192	0.01226129
0.152	0.01299219
0.15208	0.01384601
0.15216	0.01423379
0.15224	0.01477898
0.15232	0.01578669
0.1524	0.0165724
0.15248	0.01694765
0.15256	0.0170385
0.15264	0.01731441
0.15272	0.01776329
0.1528	0.01823527
0.15288	0.01873561
0.15296	0.01880289
0.15304	0.01827449
0.15312	0.01740956
0.1532	0.01712172
0.15328	0.01736413
0.15336	0.01768654
0.15344	0.01782346
0.15352	0.01773386
0.1536	0.01803553
0.15368	0.01858676
0.15376	0.01950658
0.15384	0.02048648
0.15392	0.02068528
0.154	0.02143937
0.15408	0.02157897
0.15416	0.02067578
0.15424	0.02019273
0.15432	0.01984967
0.1544	0.02041355
0.15448	0.02079246
0.15456	0.02109053
0.15464	0.02154914
0.15472	0.02177248
0.1548	0.02105689
0.15488	0.01974757
0.15496	0.01820404
0.15504	0.01709285
0.15512	0.01602777
0.1552	0.01497693
0.15528	0.01375725
0.15536	0.01265417
0.15544	0.01213346
0.15552	0.01205495
0.1556	0.01255966
0.15568	0.01220483
0.15576	0.01130096
0.15584	0.01048425
0.15592	0.01006411
0.156	0.01034441
0.15608	0.01051947
0.15616	0.01021376
0.15624	0.01047442
0.15632	0.0105547
0.1564	0.01071069
0.15648	0.01073103
0.15656	0.01040458
0.15664	0.01018604
0.15672	0.009715053
0.1568	0.009221113
0.15688	0.009109634
0.15696	0.009005276
0.15704	0.008886527
0.15712	0.008334183
0.1572	0.00724785
0.15728	0.006513154
0.15736	0.005647794
0.15744	0.004736813
0.15752	0.003866962
0.1576	0.002917194
0.15768	0.002718914
0.15776	0.002594621
0.15784	0.002239491
0.15792	0.00221
0.158	0.002795631
0.15808	0.003030766
0.15816	0.00277402
0.15824	0.002408391
0.15832	0.002324334
0.1584	0.002258329
0.15848	0.002179358
0.15856	0.00170029
0.15864	0.001024912
0.15872	0.0005440558
0.1588	-0.0002305
0.15888	-0.0007564352
0.15896	-0.001040512
0.15904	-0.0008602723
0.15912	-0.0001861767
0.1592	9.152313e-5
0.15928	3.301639e-5
0.15936	-5.91785e-5
0.15944	-0.000710624
0.15952	-0.001016196
0.1596	-0.001544718
0.15968	-0.002521026
0.15976	-0.003710118
0.15984	-0.004367855
0.15992	-0.004487695
0.16	-0.004277761
0.16008	-0.004718137
0.16016	-0.005484773
0.16024	-0.006220879
0.16032	-0.006389685
0.1604	-0.006698786
0.16048	-0.007866342
0.16056	-0.00883265
0.16064	-0.009251986
0.16072	-0.008667867
0.1608	-0.007837436
0.16088	-0.008262283
0.16096	-0.008913846
0.16104	-0.009471031
0.16112	-0.01022255
0.1612	-0.01019988
0.16128	-0.00997358
0.16136	-0.01006152
0.16144	-0.01088106
0.16152	-0.01148489
0.1616	-0.01132795
0.16168	-0.01085702
0.16176	-0.01041474
0.16184	-0.00959461
0.16192	-0.009328042
0.162	-0.009438208
0.16208	-0.008627675
0.16216	-0.008722643
0.16224	-0.009049109
0.16232	-0.009155893
0.1624	-0.009571123
0.16248	-0.01035244
0.16256	-0.01106474
0.16264	-0.0119646
0.16272	-0.01282211
0.1628	-0.01319392
0.16288	-0.01258522
0.16296	-0.01230024
0.16304	-0.01207861
0.16312	-0.01202585
0.1632	-0.01196417
0.16328	-0.01175535
0.16336	-0.01188144
0.16344	-0.01244962
0.16352	-0.01296257
0.1636	-0.01293954
0.16368	-0.01229623
0.16376	-0.0126624
0.16384	-0.01267734
0.16392	-0.01242022
0.164	-0.0129101
0.16408	-0.01366158
0.16416	-0.01400874
0.16424	-0.01434691
0.16432	-0.01426186
0.1644	-0.01399556
0.16448	-0.01411277
0.16456	-0.01401246
0.16464	-0.01431655
0.16472	-0.01450366
0.1648	-0.01495901
0.16488	-0.01460272
0.16496	-0.0140577
0.16504	-0.01368029
0.16512	-0.01327498
0.1652	-0.01301196
0.16528	-0.01344645
0.16536	-0.01412586
0.16544	-0.01471674
0.16552	-0.01475923
0.1656	-0.0146474
0.16568	-0.01416743
0.16576	-0.01361696
0.16584	-0.01343342
0.16592	-0.01356501
0.166	-0.01369879
0.16608	-0.01383711
0.16616	-0.01372084
0.16624	-0.0138449
0.16632	-0.01377197
0.1664	-0.01368093
0.16648	-0.01316398
0.16656	-0.01285479
0.16664	-0.01273641
0.16672	-0.01249342
0.1668	-0.01199277
0.16688	-0.01144179
0.16696	-0.01099935
0.16704	-0.0106565
0.16712	-0.01020766
0.1672	-0.009972388
0.16728	-0.009874282
0.16736	-0.009891817
0.16744	-0.009457997
0.16752	-0.008612799
0.1676	-0.007547955
0.16768	-0.006080118
0.16776	-0.005033127
0.16784	-0.004861066
0.16792	-0.005244714
0.168	-0.00528527
0.16808	-0.004934248
0.16816	-0.004434824
0.16824	-0.004087074
0.16832	-0.003686902
0.1684	-0.003440463
0.16848	-0.003527038
0.16856	-0.003871345
0.16864	-0.004580815
0.16872	-0.004825944
0.1688	-0.004629876
0.16888	-0.004399171
0.16896	-0.004773774
0.16904	-0.005177618
0.16912	-0.004961428
0.1692	-0.005105225
0.16928	-0.005045986
0.16936	-0.004317786
0.16944	-0.003498071
0.16952	-0.002886197
0.1696	-0.002132824
0.16968	-0.0009085129
0.16976	0.0003567683
0.16984	0.0009665639
0.16992	0.001875385
0.17	0.002771656
0.17008	0.003746145
0.17016	0.004653433
0.17024	0.005711047
0.17032	0.006488884
0.1704	0.00727246
0.17048	0.007848262
0.17056	0.008770289
0.17064	0.009874808
0.17072	0.01082345
0.1708	0.01199128
0.17088	0.01214659
0.17096	0.01249767
0.17104	0.01286479
0.17112	0.01327226
0.1712	0.01353193
0.17128	0.01478361
0.17136	0.01562827
0.17144	0.01531008
0.17152	0.01502294
0.1716	0.01499273
0.17168	0.01533474
0.17176	0.0151223
0.17184	0.01542546
0.17192	0.01539925
0.172	0.01593407
0.17208	0.01670136
0.17216	0.01667253
0.17224	0.01688615
0.17232	0.01708448
0.1724	0.01702632
0.17248	0.01688748
0.17256	0.01713404
0.17264	0.0175153
0.17272	0.0180306
0.1728	0.01784221
0.17288	0.01755576
0.17296	0.01809873
0.17304	0.01878767
0.17312	0.01874678
0.1732	0.01899501
0.17328	0.0185413
0.17336	0.01727818
0.17344	0.01681552
0.17352	0.0163704
0.1736	0.01627918
0.17368	0.01643738
0.17376	0.01679957
0.17384	0.01708949
0.17392	0.01704787
0.174	0.01738126
0.17408	0.01784379
0.17416	0.01870253
0.17424	0.01880158
0.17432	0.01910803
0.1744	0.01813526
0.17448	0.01738431
0.17456	0.0171751
0.17464	0.01670384
0.17472	0.01633974
0.1748	0.01521401
0.17488	0.01348409
0.17496	0.01250318
0.17504	0.01221657
0.17512	0.01154368
0.1752	0.01112546
0.17528	0.01082932
0.17536	0.01034388
0.17544	0.009799759
0.17552	0.01021688
0.1756	0.01072832
0.17568	0.01085637
0.17576	0.01045716
0.17584	0.009724103
0.17592	0.009013975
0.176	0.009265774
0.17608	0.01038521
0.17616	0.01060286
0.17624	0.01108503
0.17632	0.01126307
0.1764	0.01102174
0.17648	0.01148397
0.17656	0.01141772
0.17664	0.01082921
0.17672	0.009969677
0.1768	0.009226672
0.17688	0.009149622
0.17696	0.009035662
0.17704	0.008650891
0.17712	0.009193193
0.1772	0.00941714
0.17728	0.009145412
0.17736	0.008813533
0.17744	0.007953933
0.17752	0.007196033
0.1776	0.006739207
0.17768	0.006106213
0.17776	0.005752238
0.17784	0.00591723
0.17792	0.005990393
0.178	0.005893362
0.17808	0.005236431
0.17816	0.004174436
0.17824	0.002872233
0.17832	0.002036053
0.1784	0.001479427
0.17848	0.0006966837
0.17856	0.0007939506
0.17864	0.000647366
0.17872	-0.0002497525
0.1788	-0.001074083
0.17888	-0.001140847
0.17896	-0.001114111
0.17904	-0.0008582177
0.17912	-0.0009919762
0.1792	-0.001182659
0.17928	-0.00113848
0.17936	-0.0006659823
0.17944	-0.0003343148
0.17952	-0.0005383059
0.1796	-0.0001201405
0.17968	0.0003750877
0.17976	0.0004842502
0.17984	0.0008590827
0.17992	0.001721373
0.18	0.001853851
0.18008	0.00155227
0.18016	0.001295043
0.18024	0.0008763565
0.18032	0.0001713707
0.1804	-0.0008011917
0.18048	-0.001447562
0.18056	-0.001545043
0.18064	-0.002379938
0.18072	-0.003489431
0.1808	-0.003732094
0.18088	-0.003269212
0.18096	-0.003460231
0.18104	-0.0039262
0.18112	-0.004366054
0.1812	-0.005096714
0.18128	-0.005465304
0.18136	-0.005470049
0.18144	-0.006113323
0.18152	-0.006544375
0.1816	-0.006720339
0.18168	-0.006654409
0.18176	-0.006932647
0.18184	-0.00725228
0.18192	-0.007935889
0.182	-0.009044568
0.18208	-0.009602965
0.18216	-0.009476689
0.18224	-0.009124096
0.18232	-0.008629831
0.1824	-0.008548379
0.18248	-0.00875149
0.18256	-0.009039393
0.18264	-0.009817414
0.18272	-0.01086821
0.1828	-0.01096354
0.18288	-0.01102838
0.18296	-0.01163273
0.18304	-0.01202832
0.18312	-0.01243963
0.1832	-0.01246809
0.18328	-0.0128312
0.18336	-0.01276931
0.18344	-0.01298978
0.18352	-0.01289757
0.1836	-0.01272409
0.18368	-0.01292671
0.18376	-0.01255407
0.18384	-0.01194562
0.18392	-0.01154622
0.184	-0.0116183
0.18408	-0.01179202
0.18416	-0.0122638
0.18424	-0.01323
0.18432	-0.01371778
0.1844	-0.01419867
0.18448	-0.01439668
0.18456	-0.01507338
0.18464	-0.01585653
0.18472	-0.01573008
0.1848	-0.01539308
0.18488	-0.01495468
0.18496	-0.01468665
0.18504	-0.01438304
0.18512	-0.01409965
0.1852	-0.01425683
0.18528	-0.01416443
0.18536	-0.01351671
0.18544	-0.0127796
0.18552	-0.01279801
0.1856	-0.01300603
0.18568	-0.01440238
0.18576	-0.01487377
0.18584	-0.01527946
0.18592	-0.0153241
0.186	-0.01491319
0.18608	-0.01478681
0.18616	-0.01497013
0.18624	-0.01496388
0.18632	-0.0148202
0.1864	-0.01451709
0.18648	-0.01393345
0.18656	-0.0134379
0.18664	-0.01275151
0.18672	-0.01143408
0.1868	-0.01039691
0.18688	-0.0101845
0.18696	-0.01042623
0.18704	-0.01105578
0.18712	-0.01151523
0.1872	-0.0111522
0.18728	-0.01049631
0.18736	-0.01036976
0.18744	-0.01031611
0.18752	-0.009966933
0.1876	-0.009552159
0.18768	-0.009413307
0.18776	-0.008871086
0.18784	-0.008359904
0.18792	-0.007971491
0.188	-0.007231988
0.18808	-0.006136694
0.18816	-0.005997526
0.18824	-0.00590823
0.18832	-0.0053158
0.1884	-0.004521226
0.18848	-0.003759329
0.18856	-0.003749276
0.18864	-0.003411109
0.18872	-0.002845659
0.1888	-0.002267017
0.18888	-0.00162227
0.18896	-0.001262185
0.18904	-0.0003443599
0.18912	0.0003012553
0.1892	0.0002590828
0.18928	0.001124582
0.18936	0.002002867
0.18944	0.002406688
0.18952	0.002885398
0.1896	0.002940686
0.18968	0.00299947
0.18976	0.003065447
0.18984	0.002851644
0.18992	0.003042311
0.19	0.003629283
0.19008	0.004286214
0.19016	0.00448462
0.19024	0.00443498
0.19032	0.004363222
0.1904	0.00483697
0.19048	0.005660242
0.19056	0.006617614
0.19064	0.007278923
0.19072	0.007348746
0.1908	0.007295236
0.19088	0.007176589
0.19096	0.007194002
0.19104	0.007376909
0.19112	0.007627307
0.1912	0.007359492
0.19128	0.007678819
0.19136	0.008343264
0.19144	0.008841666
0.19152	0.008953176
0.1916	0.009117546
0.19168	0.009878988
0.19176	0.0103145
0.19184	0.009882418
0.19192	0.009000351
0.192	0.008564523
0.19208	0.008752475
0.19216	0.008969935
0.19224	0.008170567
0.19232	0.008410591
0.1924	0.009015724
0.19248	0.009247132
0.19256	0.008712998
0.19264	0.008490224
0.19272	0.009082003
0.1928	0.00916945
0.19288	0.00901809
0.19296	0.009002365
0.19304	0.009701592
0.19312	0.009777323
0.1932	0.009642955
0.19328	0.009564556
0.19336	0.01009054
0.19344	0.01076812
0.19352	0.01085761
0.1936	0.01143557
0.19368	0.012301
0.19376	0.01267042
0.19384	0.01326161
0.19392	0.01377794
0.194	0.01426469
0.19408	0.01487718
0.19416	0.0148605
0.19424	0.01472572
0.19432	0.01444182
0.1944	0.01451765
0.19448	0.01438402
0.19456	0.01413825
0.19464	0.01389477
0.19472	0.01403588
0.1948	0.01478157
0.19488	0.01537491
0.19496	0.01609282
0.19504	0.01610173
0.19512	0.01650664
0.1952	0.01718603
0.19528	0.01690023
0.19536	0.01620466
0.19544	0.01561351
0.19552	0.01515458
0.1956	0.01421964
0.19568	0.01347069
0.19576	0.01267024
0.19584	0.0120876
0.19592	0.01216757
0.196	0.01196925
0.19608	0.01129598
0.19616	0.01030163
0.19624	0.009805221
0.19632	0.01015897
0.1964	0.01053353
0.19648	0.01130697
0.19656	0.01193368
0.19664	0.01228667
0.19672	0.01248962
0.1968	0.0122083
0.19688	0.01138296
0.19696	0.01032644
0.19704	0.0105429
0.19712	0.01042349
0.1972	0.00973198
0.19728	0.008946696
0.19736	0.008739893
0.19744	0.008798401
0.19752	0.007844083
0.1976	0.006547456
0.19768	0.005755445
0.19776	0.005200011
0.19784	0.004787686
0.19792	0.004032143
0.198	0.003321661
0.19808	0.003225902
0.19816	0.003089151
0.19824	0.002224997
0.19832	0.001549376
0.1984	0.001285034
0.19848	0.001033216
0.19856	0.0005583991
0.19864	0.0002775754
0.19872	-0.0003711212
0.1988	-0.0007283665
0.19888	-0.0008633751
0.19896	-0.001167273
0.19904	-0.001312604
0.19912	-0.001685407
0.1992	-0.002637055
0.19928	-0.0030255
0.19936	-0.002898679
0.19944	-0.00274963
0.19952	-0.002910854
0.1996	-0.003683324
0.19968	-0.00476666
0.19976	-0.006037978
0.19984	-0.006854042
0.19992	-0.007352355
0.2	-0.008003936
0.20008	-0.008159569
0.20016	-0.007424686
0.20024	-0.007564389
0.20032	-0.008095986
0.2004	-0.007595885
0.20048	-0.007269008
0.20056	-0.006385036
0.20064	-0.005190768
0.20072	-0.004404885
0.2008	-0.004176474
0.20088	-0.003914446
0.20096	-0.003610421
0.20104	-0.002896141
0.20112	-0.00318988
0.2012	-0.004587207
0.20128	-0.005853847
0.20136	-0.006576465
0.20144	-0.007390002
0.20152	-0.007795779
0.2016	-0.007727062
0.20168	-0.007263905
0.20176	-0.00693427
0.20184	-0.006839177
0.20192	-0.007181117
0.202	-0.007592127
0.20208	-0.008663609
0.20216	-0.009984321
0.20224	-0.01044844
0.20232	-0.01084608
0.2024	-0.01092229
0.20248	-0.01139954
0.20256	-0.01211507
0.20264	-0.01225915
0.20272	-0.01175082
0.2028	-0.01134377
0.20288	-0.01142024
0.20296	-0.01170313
0.20304	-0.01138218
0.20312	-0.01108109
0.2032	-0.0115035
0.20328	-0.01227564
0.20336	-0.01253417
0.20344	-0.01306195
0.20352	-0.01343412
0.2036	-0.01292657
0.20368	-0.01328134
0.20376	-0.01363963
0.20384	-0.01353637
0.20392	-0.01321538
0.204	-0.01312946
0.20408	-0.01288574
0.20416	-0.01267749
0.20424	-0.01258582
0.20432	-0.01241681
0.2044	-0.01233057
0.20448	-0.01246104
0.20456	-0.01243393
0.20464	-0.01255161
0.20472	-0.01342407
0.2048	-0.01448491
0.20488	-0.0154637
0.20496	-0.01587487
0.20504	-0.01595841
0.20512	-0.01601781
0.2052	-0.01638139
0.20528	-0.01671716
0.20536	-0.01597136
0.20544	-0.01497505
0.20552	-0.01399639
0.2056	-0.01324168
0.20568	-0.01269414
0.20576	-0.0132875
0.20584	-0.01317724
0.20592	-0.01273083
0.206	-0.01292143
0.20608	-0.01244587
0.20616	-0.0119967
0.20624	-0.01176691
0.20632	-0.01193665
0.2064	-0.01109513
0.20648	-0.01096371
0.20656	-0.01104572
0.20664	-0.01114388
0.20672	-0.01182484
0.2068	-0.012217
0.20688	-0.01135135
0.20696	-0.01063064
0.20704	-0.009924559
0.20712	-0.009440259
0.2072	-0.008769243
0.20728	-0.007891234
0.20736	-0.007482493
0.20744	-0.006987475
0.20752	-0.006532129
0.2076	-0.00639208
0.20768	-0.006539707
0.20776	-0.006760814
0.20784	-0.006804361
0.20792	-0.006553571
0.208	-0.006264349
0.20808	-0.006362003
0.20816	-0.00604074
0.20824	-0.005536013
0.20832	-0.004856769
0.2084	-0.00407916
0.20848	-0.004069501
0.20856	-0.003548247
0.20864	-0.002840572
0.20872	-0.002470873
0.2088	-0.002504255
0.20888	-0.002740213
0.20896	-0.001986984
0.20904	-0.001077135
0.20912	-0.0005701502
0.2092	-0.0005114306
0.20928	-0.0006062731
0.20936	-0.0003626141
0.20944	0.0007597625
0.20952	0.0008467061
0.2096	0.0009588759
0.20968	0.0010086
0.20976	0.001056253
0.20984	0.001137721
0.20992	0.001433158
0.21	0.002146145
0.21008	0.002604843
0.21016	0.002889636
0.21024	0.00298957
0.21032	0.003489838
0.2104	0.003971069
0.21048	0.004307536
0.21056	0.004407182
0.21064	0.005005872
0.21072	0.005087857
0.2108	0.005208229
0.21088	0.005446968
0.21096	0.005992489
0.21104	0.006479285
0.21112	0.007351629
0.2112	0.008242223
0.21128	0.008736794
0.21136	0.008996479
0.21144	0.008733482
0.21152	0.009019989
0.2116	0.008945086
0.21168	0.00854461
0.21176	0.008589013
0.21184	0.008571734
0.21192	0.009451937
0.212	0.01009443
0.21208	0.0108982
0.21216	0.0118488
0.21224	0.01290535
0.21232	0.01281787
0.2124	0.0122111
0.21248	0.01226763
0.21256	0.01203978
0.21264	0.01231539
0.21272	0.01237637
0.2128	0.01250555
0.21288	0.01283652
0.21296	0.01300511
0.21304	0.01329533
0.21312	0.01354706
0.2132	0.01317043
0.21328	0.01275589
0.21336	0.012197
0.21344	0.01173985
0.21352	0.01169382
0.2136	0.01251695
0.21368	0.01347933
0.21376	0.01380516
0.21384	0.01370267
0.21392	0.01417189
0.214	0.01469658
0.21408	0.01539636
0.21416	0.01539865
0.21424	0.01589756
0.21432	0.01627709
0.2144	0.01666255
0.21448	0.01720781
0.21456	0.01700665
0.21464	0.01723709
0.21472	0.01794419
0.2148	0.01829155
0.21488	0.01830596
0.21496	0.01863146
0.21504	0.01826992
0.21512	0.01804228
0.2152	0.01790046
0.21528	0.01804424
0.21536	0.01901489
0.21544	0.02001288
0.21552	0.01979445
0.2156	0.01934836
0.21568	0.01828499
0.21576	0.01763687
0.21584	0.01705581
0.21592	0.01650928
0.216	0.01617164
0.21608	0.01604305
0.21616	0.01608796
0.21624	0.01516647
0.21632	0.01480869
0.2164	0.01425365
0.21648	0.01309391
0.21656	0.01233281
0.21664	0.0122706
0.21672	0.01201833
0.2168	0.01133816
0.21688	0.01035593
0.21696	0.00954956
0.21704	0.009312803
0.21712	0.00870812
0.2172	0.007644976
0.21728	0.006999516
0.21736	0.006307256
0.21744	0.005793868
0.21752	0.006172745
0.2176	0.006604143
0.21768	0.006246164
0.21776	0.005441834
0.21784	0.005197451
0.21792	0.00473268
0.218	0.004425019
0.21808	0.004135806
0.21816	0.003569866
0.21824	0.002718454
0.21832	0.002457588
0.2184	0.003243379
0.21848	0.003639214
0.21856	0.003826208
0.21864	0.004080256
0.21872	0.004112323
0.2188	0.004058834
0.21888	0.004014793
0.21896	0.004072804
0.21904	0.003340637
0.21912	0.002581585
0.2192	0.002072328
0.21928	0.0009530775
0.21936	0.0004768611
0.21944	-0.000254475
0.21952	-0.0007041441
0.2196	-0.0004421199
0.21968	-0.0003958007
0.21976	-0.001384729
0.21984	-0.002295536
0.21992	-0.003251782
0.22	-0.004322231
0.22008	-0.004715479
0.22016	-0.005097596
0.22024	-0.005325811
0.22032	-0.005873829
0.2204	-0.00543172
0.22048	-0.005043713
0.22056	-0.004916341
0.22064	-0.004562205
0.22072	-0.004399533
0.2208	-0.00491362
0.22088	-0.005892382
0.22096	-0.006693538
0.22104	-0.007023226
0.22112	-0.00760283
0.2212	-0.007659531
0.22128	-0.007225015
0.22136	-0.007509709
0.22144	-0.007900724
0.22152	-0.008763948
0.2216	-0.009113737
0.22168	-0.008987477
0.22176	-0.009786215
0.22184	-0.01065873
0.22192	-0.0112606
0.222	-0.01131443
0.22208	-0.01143617
0.22216	-0.01205177
0.22224	-0.0130466
0.22232	-0.01384627
0.2224	-0.01448976
0.22248	-0.01445874
0.22256	-0.01426397
0.22264	-0.01331014
0.22272	-0.01311413
0.2228	-0.01383737
0.22288	-0.01391984
0.22296	-0.0135645
0.22304	-0.01296923
0.22312	-0.01290577
0.2232	-0.01325999
0.22328	-0.01397038
0.22336	-0.01429321
0.22344	-0.0136201
0.22352	-0.01376897
0.2236	-0.01363055
0.22368	-0.01333594
0.22376	-0.01334807
0.22384	-0.01303975
0.22392	-0.01328617
0.224	-0.01376764
0.22408	-0.01477896
0.22416	-0.01602612
0.22424	-0.01649139
0.22432	-0.01649393
0.2244	-0.01685628
0.22448	-0.01720962
0.22456	-0.01730544
0.22464	-0.01779613
0.22472	-0.01829091
0.2248	-0.01821938
0.22488	-0.01784883
0.22496	-0.01698036
0.22504	-0.01681041
0.22512	-0.01657888
0.2252	-0.01657581
0.22528	-0.01633011
0.22536	-0.01630072
0.22544	-0.01690962
0.22552	-0.01671884
0.2256	-0.01628348
0.22568	-0.01564934
0.22576	-0.01504217
0.22584	-0.01468215
0.22592	-0.01400955
0.226	-0.01317279
0.22608	-0.01249166
0.22616	-0.01238171
0.22624	-0.01285301
0.22632	-0.01360753
0.2264	-0.01373461
0.22648	-0.01352376
0.22656	-0.01350071
0.22664	-0.01341602
0.22672	-0.01363362
0.2268	-0.01260177
0.22688	-0.01124979
0.22696	-0.01060886
0.22704	-0.01017794
0.22712	-0.009916279
0.2272	-0.00992205
0.22728	-0.01093192
0.22736	-0.01184753
0.22744	-0.01233471
0.22752	-0.01224147
0.2276	-0.01155192
0.22768	-0.01041093
0.22776	-0.009831969
0.22784	-0.009029691
0.22792	-0.007684303
0.228	-0.006788689
0.22808	-0.005679969
0.22816	-0.005028802
0.22824	-0.004083958
0.22832	-0.003543231
0.2284	-0.003947565
0.22848	-0.004016732
0.22856	-0.003670299
0.22864	-0.003422032
0.22872	-0.003156155
0.2288	-0.002793966
0.22888	-0.001939097
0.22896	-0.001085987
0.22904	-0.0007314432
0.22912	-0.0001768389
0.2292	0.0007403025
0.22928	0.001479809
0.22936	0.002000626
0.22944	0.00221892
0.22952	0.001730553
0.2296	0.002002322
0.22968	0.003131556
0.22976	0.004292608
0.22984	0.00487544
0.22992	0.005544641
0.23	0.00612366
0.23008	0.006717992
0.23016	0.006972671
0.23024	0.006675911
0.23032	0.006389431
0.2304	0.007131345
0.23048	0.00786972
0.23056	0.008624204
0.23064	0.009024263
0.23072	0.009435502
0.2308	0.009054611
0.23088	0.008934885
0.23096	0.00859101
0.23104	0.00838404
0.23112	0.008789418
0.2312	0.008856425
0.23128	0.008866954
0.23136	0.009042621
0.23144	0.009563539
0.23152	0.01047444
0.2316	0.01186785
0.23168	0.01224561
0.23176	0.01190763
0.23184	0.01185949
0.23192	0.01171245
0.232	0.01155292
0.23208	0.01181774
0.23216	0.01206035
0.23224	0.01263537
0.23232	0.01359081
0.2324	0.01453581
0.23248	0.01507846
0.23256	0.01536828
0.23264	0.01511426
0.23272	0.01535532
0.2328	0.01530151
0.23288	0.01516835
0.23296	0.01476309
0.23304	0.01476052
0.23312	0.01487205
0.2332	0.01494838
0.23328	0.01565847
0.23336	0.01616272
0.23344	0.01706124
0.23352	0.01746561
0.2336	0.01777631
0.23368	0.0176129
0.23376	0.01644164
0.23384	0.01649895
0.23392	0.01658648
0.234	0.01599482
0.23408	0.01558042
0.23416	0.01456264
0.23424	0.01405409
0.23432	0.01374801
0.2344	0.01355599
0.23448	0.01351343
0.23456	0.0126691
0.23464	0.01258401
0.23472	0.01278836
0.2348	0.01298056
0.23488	0.01287858
0.23496	0.01178131
0.23504	0.01070298
0.23512	0.01054368
0.2352	0.01092366
0.23528	0.01137153
0.23536	0.01144806
0.23544	0.01135732
0.23552	0.01162509
0.2356	0.01200971
0.23568	0.01228416
0.23576	0.01258318
0.23584	0.0120054
0.23592	0.01093344
0.236	0.009519119
0.23608	0.008632899
0.23616	0.008420526
0.23624	0.008455945
0.23632	0.008227815
0.2364	0.008316855
0.23648	0.008411336
0.23656	0.008068401
0.23664	0.007933186
0.23672	0.008125551
0.2368	0.007331506
0.23688	0.006157886
0.23696	0.005551666
0.23704	0.005180378
0.23712	0.003883858
0.2372	0.002621472
0.23728	0.002340065
0.23736	0.00217451
0.23744	0.001683296
0.23752	0.001523695
0.2376	0.001386256
0.23768	0.001257477
0.23776	0.001169758
0.23784	0.001073577
0.23792	0.001145167
0.238	0.001827279
0.23808	0.001627116
0.23816	0.001109968
0.23824	0.001502743
0.23832	0.001417655
0.2384	0.001318596
0.23848	0.0007330965
0.23856	0.0007342058
0.23864	0.0009717321
0.23872	0.001326343
0.2388	0.001944175
0.23888	0.002234124
0.23896	0.001747002
0.23904	0.001073104
0.23912	0.0007259362
0.2392	0.001154703
0.23928	0.001294593
0.23936	0.001441162
0.23944	0.001657641
0.23952	0.001481555
0.2396	0.001301459
0.23968	0.0007210934
0.23976	7.603433e-6
0.23984	-0.001085345
0.23992	-0.001857603
0.24	-0.002483878
0.24008	-0.002852934
0.24016	-0.002935039
0.24024	-0.00241578
0.24032	-0.001905314
0.2404	-0.002104543
0.24048	-0.002600906
0.24056	-0.003424553
0.24064	-0.004302028
0.24072	-0.004838125
0.2408	-0.005019507
0.24088	-0.004876846
0.24096	-0.004590878
0.24104	-0.004408771
0.24112	-0.00480505
0.2412	-0.005126346
0.24128	-0.005444644
0.24136	-0.00559938
0.24144	-0.00559001
0.24152	-0.005754839
0.2416	-0.006789953
0.24168	-0.008425653
0.24176	-0.009382569
0.24184	-0.009741598
0.24192	-0.01015897
0.242	-0.01081686
0.24208	-0.01120064
0.24216	-0.01095898
0.24224	-0.01086826
0.24232	-0.01024935
0.2424	-0.0101239
0.24248	-0.01146804
0.24256	-0.01257957
0.24264	-0.01301084
0.24272	-0.01266568
0.2428	-0.01134986
0.24288	-0.01044938
0.24296	-0.01019025
0.24304	-0.00981879
0.24312	-0.009950216
0.2432	-0.01015332
0.24328	-0.01054676
0.24336	-0.01141082
0.24344	-0.01178433
0.24352	-0.01204895
0.2436	-0.01192817
0.24368	-0.01178459
0.24376	-0.01177397
0.24384	-0.01164555
0.24392	-0.01138552
0.244	-0.01100517
0.24408	-0.01060346
0.24416	-0.01088277
0.24424	-0.01129406
0.24432	-0.01122527
0.2444	-0.0114283
0.24448	-0.01209197
0.24456	-0.01260454
0.24464	-0.0137684
0.24472	-0.01517521
0.2448	-0.01604256
0.24488	-0.01633873
0.24496	-0.01670168
0.24504	-0.01697843
0.24512	-0.01745773
0.2452	-0.01709948
0.24528	-0.01703482
0.24536	-0.01702867
0.24544	-0.01645632
0.24552	-0.01657107
0.2456	-0.01678004
0.24568	-0.01668593
0.24576	-0.01591494
0.24584	-0.01576435
0.24592	-0.01521404
0.246	-0.01492569
0.24608	-0.01468488
0.24616	-0.0141656
0.24624	-0.013894
0.24632	-0.01312951
0.2464	-0.01236881
0.24648	-0.01139835
0.24656	-0.01084654
0.24664	-0.01039741
0.24672	-0.009689406
0.2468	-0.008785904
0.24688	-0.008006553
0.24696	-0.007526498
0.24704	-0.007810758
0.24712	-0.007777355
0.2472	-0.008190372
0.24728	-0.008922345
0.24736	-0.009467701
0.24744	-0.009473744
0.24752	-0.009112069
0.2476	-0.008504451
0.24768	-0.007833155
0.24776	-0.007560372
0.24784	-0.007273786
0.24792	-0.007019045
0.248	-0.006969234
0.24808	-0.005965232
0.24816	-0.00495345
0.24824	-0.004643712
0.24832	-0.004815724
0.2484	-0.004811528
0.24848	-0.00459815
0.24856	-0.004464178
0.24864	-0.003980357
0.24872	-0.003586851
0.2488	-0.003538801
0.24888	-0.003850972
0.24896	-0.004199954
0.24904	-0.003507379
0.24912	-0.002591622
0.2492	-0.002278936
0.24928	-0.002200417
0.24936	-0.001473168
0.24944	-0.0005126219
0.24952	0.0002149147
0.2496	0.0007045008
0.24968	0.001382485
0.24976	0.001682373
0.24984	0.001639645
0.24992	0.00190675
0.25	0.002253911
0.25008	0.002347849
0.25016	0.002460227
0.25024	0.0026709
0.25032	0.003148065
0.2504	0.002996154
0.25048	0.002551129
0.25056	0.002161211
0.25064	0.001748725
0.25072	0.001671303
0.2508	0.002170527
0.25088	0.00297005
0.25096	0.003281914
0.25104	0.003923856
0.25112	0.004401672
0.2512	0.004737037
0.25128	0.005363705
0.25136	0.005966511
0.25144	0.005974532
0.25152	0.006175047
0.2516	0.007003807
0.25168	0.00769545
0.25176	0.00790055
0.25184	0.0081958
0.25192	0.008248406
0.252	0.008315729
0.25208	0.00889733
0.25216	0.009806622
0.25224	0.01055877
0.25232	0.01119504
0.2524	0.01139605
0.25248	0.01166559
0.25256	0.0116926
0.25264	0.01174729
0.25272	0.01226381
0.2528	0.01216503
0.25288	0.01240884
0.25296	0.01258685
0.25304	0.01294338
0.25312	0.01414634
0.2532	0.015489
0.25328	0.01559891
0.25336	0.01524513
0.25344	0.01446766
0.25352	0.01452507
0.2536	0.01480312
0.25368	0.0148362
0.25376	0.01503638
0.25384	0.01504422
0.25392	0.01517748
0.254	0.01488043
0.25408	0.01470855
0.25416	0.01516815
0.25424	0.01579691
0.25432	0.01583371
0.2544	0.01528445
0.25448	0.01437939
0.25456	0.01323587
0.25464	0.01268978
0.25472	0.01202062
0.2548	0.01188766
0.25488	0.01193542
0.25496	0.01201883
0.25504	0.0118881
0.25512	0.01199777
0.2552	0.01203399
0.25528	0.01203802
0.25536	0.01156719
0.25544	0.0111703
0.25552	0.01102009
0.2556	0.01149343
0.25568	0.01153541
0.25576	0.01142471
0.25584	0.01166059
0.25592	0.0109788
0.256	0.009955646
0.25608	0.009332196
0.25616	0.009357141
0.25624	0.009462493
0.25632	0.008960083
0.2564	0.009068991
0.25648	0.009737955
0.25656	0.009767608
0.25664	0.00968758
0.25672	0.009723187
0.2568	0.009792849
0.25688	0.009624543
0.25696	0.008823561
0.25704	0.008095655
0.25712	0.007718621
0.2572	0.007493831
0.25728	0.007156659
0.25736	0.007220526
0.25744	0.006540638
0.25752	0.005357242
0.2576	0.004831952
0.25768	0.004894181
0.25776	0.005426281
0.25784	0.005753159
0.25792	0.005447722
0.258	0.005147803
0.25808	0.004712166
0.25816	0.004956666
0.25824	0.005008784
0.25832	0.004736373
0.2584	0.005458
0.25848	0.005965517
0.25856	0.005214513
0.25864	0.003935017
0.25872	0.002953967
0.2588	0.002267135
0.25888	0.002387325
0.25896	0.003270942
0.25904	0.004002818
0.25912	0.004459355
0.2592	0.00450815
0.25928	0.004306378
0.25936	0.004226391
0.25944	0.004836845
0.25952	0.005609297
0.2596	0.005931772
0.25968	0.005435845
0.25976	0.004725387
0.25984	0.004074473
0.25992	0.004319882
0.26	0.00405781
0.26008	0.003789074
0.26016	0.003772367
0.26024	0.003869016
0.26032	0.004354434
0.2604	0.004528463
0.26048	0.004424498
0.26056	0.003827111
0.26064	0.003205476
0.26072	0.00234136
0.2608	0.00221012
0.26088	0.002675599
0.26096	0.002775801
0.26104	0.001700032
0.26112	0.0006844262
0.2612	-0.0001326806
0.26128	-0.0001081419
0.26136	-4.961999e-5
0.26144	-0.0002909785
0.26152	-0.0005498208
0.2616	-0.0006631782
0.26168	-0.001131371
0.26176	-0.001638929
0.26184	-0.001977144
0.26192	-0.002287737
0.262	-0.002855901
0.26208	-0.003332472
0.26216	-0.004604937
0.26224	-0.005410963
0.26232	-0.006269915
0.2624	-0.00706796
0.26248	-0.007216428
0.26256	-0.007176116
0.26264	-0.007099526
0.26272	-0.00699184
0.2628	-0.008000987
0.26288	-0.00870923
0.26296	-0.008624447
0.26304	-0.008924694
0.26312	-0.009680307
0.2632	-0.01017358
0.26328	-0.01072931
0.26336	-0.01080299
0.26344	-0.01079
0.26352	-0.0108846
0.2636	-0.0106347
0.26368	-0.01034455
0.26376	-0.01057799
0.26384	-0.01054606
0.26392	-0.01059982
0.264	-0.010173
0.26408	-0.01040045
0.26416	-0.01174775
0.26424	-0.01240268
0.26432	-0.01222873
0.2644	-0.01184824
0.26448	-0.01161519
0.26456	-0.01166837
0.26464	-0.01191192
0.26472	-0.01198731
0.2648	-0.0123697
0.26488	-0.01315117
0.26496	-0.01368783
0.26504	-0.01375367
0.26512	-0.01312878
0.2652	-0.0133072
0.26528	-0.01318828
0.26536	-0.01295484
0.26544	-0.01350698
0.26552	-0.01419299
0.2656	-0.01454294
0.26568	-0.01464554
0.26576	-0.01461303
0.26584	-0.01433299
0.26592	-0.01411566
0.266	-0.01378309
0.26608	-0.01324736
0.26616	-0.01248106
0.26624	-0.01225131
0.26632	-0.01219031
0.2664	-0.01241974
0.26648	-0.01249552
0.26656	-0.01181379
0.26664	-0.01126983
0.26672	-0.01094052
0.2668	-0.01039506
0.26688	-0.009980565
0.26696	-0.009377681
0.26704	-0.009091349
0.26712	-0.00908421
0.2672	-0.008915644
0.26728	-0.009316703
0.26736	-0.009626468
0.26744	-0.008825287
0.26752	-0.007902872
0.2676	-0.007808894
0.26768	-0.008342425
0.26776	-0.008975569
0.26784	-0.009387888
0.26792	-0.009145543
0.268	-0.009018129
0.26808	-0.008878707
0.26816	-0.007774074
0.26824	-0.007347532
0.26832	-0.00700511
0.2684	-0.006826981
0.26848	-0.006842324
0.26856	-0.006409037
0.26864	-0.005994753
0.26872	-0.005399023
0.2688	-0.005049028
0.26888	-0.005265578
0.26896	-0.004707234
0.26904	-0.00380837
0.26912	-0.0034474
0.2692	-0.003359108
0.26928	-0.003174121
0.26936	-0.002732223
0.26944	-0.003174985
0.26952	-0.003112697
0.2696	-0.002957587
0.26968	-0.003498561
0.26976	-0.004328567
0.26984	-0.0045878
0.26992	-0.004291036
0.27	-0.003538977
0.27008	-0.002712651
0.27016	-0.002163671
0.27024	-0.001951249
0.27032	-0.001575464
0.2704	-0.0004370903
0.27048	0.0001847203
0.27056	1.667413e-5
0.27064	0.0002651481
0.27072	0.0003971026
0.2708	0.000208239
0.27088	0.0002601127
0.27096	0.000401942
0.27104	0.001178464
0.27112	0.002407995
0.2712	0.002968098
0.27128	0.002657084
0.27136	0.002429721
0.27144	0.0026411
0.27152	0.003393618
0.2716	0.003419458
0.27168	0.003817765
0.27176	0.005204147
0.27184	0.006493562
0.27192	0.007161368
0.272	0.007304663
0.27208	0.007140088
0.27216	0.006775615
0.27224	0.006778762
0.27232	0.006623428
0.2724	0.006419332
0.27248	0.006639646
0.27256	0.007052206
0.27264	0.00718436
0.27272	0.006896327
0.2728	0.007204183
0.27288	0.007489842
0.27296	0.007860394
0.27304	0.008543451
0.27312	0.008279491
0.2732	0.007993887
0.27328	0.007874471
0.27336	0.008287827
0.27344	0.009014832
0.27352	0.009518725
0.2736	0.009845017
0.27368	0.009743493
0.27376	0.01011263
0.27384	0.01032024
0.27392	0.01019761
0.274	0.01052301
0.27408	0.0105886
0.27416	0.01035596
0.27424	0.01077811
0.27432	0.01142821
0.2744	0.01157431
0.27448	0.01163488
0.27456	0.0111523
0.27464	0.01096421
0.27472	0.01122416
0.2748	0.01138516
0.27488	0.01149244
0.27496	0.01153972
0.27504	0.01192932
0.27512	0.01217031
0.2752	0.01240244
0.27528	0.01268619
0.27536	0.01320646
0.27544	0.01380421
0.27552	0.01416635
0.2756	0.0146188
0.27568	0.01532512
0.27576	0.01541893
0.27584	0.01571451
0.27592	0.01596076
0.276	0.01554627
0.27608	0.01452695
0.27616	0.01398611
0.27624	0.01377218
0.27632	0.01297926
0.2764	0.01267708
0.27648	0.01243598
0.27656	0.01204791
0.27664	0.01258237
0.27672	0.01362639
0.2768	0.01388707
0.27688	0.01398804
0.27696	0.01504368
0.27704	0.0150088
0.27712	0.0148257
0.2772	0.01462597
0.27728	0.01377814
0.27736	0.01281697
0.27744	0.01165868
0.27752	0.01072827
0.2776	0.01038201
0.27768	0.01008917
0.27776	0.009211538
0.27784	0.008206443
0.27792	0.007484606
0.278	0.007014893
0.27808	0.007270568
0.27816	0.007764474
0.27824	0.00811745
0.27832	0.00844429
0.2784	0.008020393
0.27848	0.007851278
0.27856	0.007731054
0.27864	0.00720474
0.27872	0.006333068
0.2788	0.005861106
0.27888	0.005383688
0.27896	0.00502272
0.27904	0.004364096
0.27912	0.003587506
0.2792	0.002752033
0.27928	0.002125137
0.27936	0.001984233
0.27944	0.002000052
0.27952	0.001360744
0.2796	0.001367392
0.27968	0.001033704
0.27976	0.0005768775
0.27984	0.0005831027
0.27992	-0.0001052098
0.28	-0.0006599917
0.28008	-0.001046235
0.28016	-0.001590315
0.28024	-0.001903968
0.28032	-0.002504634
0.2804	-0.002890673
0.28048	-0.003488902
0.28056	-0.003875276
0.28064	-0.003905424
0.28072	-0.003754775
0.2808	-0.003924187
0.28088	-0.004095596
0.28096	-0.004099883
0.28104	-0.004603772
0.28112	-0.005093096
0.2812	-0.005581118
0.28128	-0.005613091
0.28136	-0.005568418
0.28144	-0.00601738
0.28152	-0.006873648
0.2816	-0.007208544
0.28168	-0.007595535
0.28176	-0.007258845
0.28184	-0.006716544
0.28192	-0.006823413
0.282	-0.007378108
0.28208	-0.007823377
0.28216	-0.007518063
0.28224	-0.007020412
0.28232	-0.006623956
0.2824	-0.007040899
0.28248	-0.007616227
0.28256	-0.007907116
0.28264	-0.008197937
0.28272	-0.008129829
0.2828	-0.008298545
0.28288	-0.008714966
0.28296	-0.009252305
0.28304	-0.009227309
0.28312	-0.009118077
0.2832	-0.009442785
0.28328	-0.009754963
0.28336	-0.01060409
0.28344	-0.01108026
0.28352	-0.01123262
0.2836	-0.01135303
0.28368	-0.01116552
0.28376	-0.01061354
0.28384	-0.01044637
0.28392	-0.01039542
0.284	-0.01035567
0.28408	-0.01059656
0.28416	-0.01066326
0.28424	-0.01138981
0.28432	-0.01138446
0.2844	-0.01117322
0.28448	-0.01121929
0.28456	-0.01161821
0.28464	-0.01218804
0.28472	-0.01259089
0.2848	-0.0128936
0.28488	-0.01257953
0.28496	-0.01205087
0.28504	-0.01256154
0.28512	-0.01304085
0.2852	-0.01306534
0.28528	-0.01308361
0.28536	-0.0127585
0.28544	-0.01245118
0.28552	-0.01238917
0.2856	-0.01213745
0.28568	-0.01164176
0.28576	-0.01177923
0.28584	-0.01218425
0.28592	-0.01282883
0.286	-0.01299153
0.28608	-0.01274075
0.28616	-0.0130487
0.28624	-0.01343094
0.28632	-0.01311204
0.2864	-0.01357859
0.28648	-0.01471841
0.28656	-0.01524981
0.28664	-0.01557907
0.28672	-0.01552117
0.2868	-0.01499525
0.28688	-0.01492537
0.28696	-0.01458576
0.28704	-0.0137319
0.28712	-0.01289279
0.2872	-0.01231785
0.28728	-0.01206745
0.28736	-0.01154721
0.28744	-0.01156337
0.28752	-0.01195564
0.2876	-0.01165628
0.28768	-0.01085415
0.28776	-0.01072379
0.28784	-0.01089116
0.28792	-0.01105241
0.288	-0.01121982
0.28808	-0.01094784
0.28816	-0.01033482
0.28824	-0.009733189
0.28832	-0.009458567
0.2884	-0.009233871
0.28848	-0.008372161
0.28856	-0.007479071
0.28864	-0.006722325
0.28872	-0.006013576
0.2888	-0.00585012
0.28888	-0.006071778
0.28896	-0.006241753
0.28904	-0.006264431
0.28912	-0.006535919
0.2892	-0.006528893
0.28928	-0.006189437
0.28936	-0.005414516
0.28944	-0.004425738
0.28952	-0.003604535
0.2896	-0.002918819
0.28968	-0.002962888
0.28976	-0.003055141
0.28984	-0.002890358
0.28992	-0.002817698
0.29	-0.002453923
0.29008	-0.001759367
0.29016	-0.001340585
0.29024	-0.0005542058
0.29032	-0.0003797528
0.2904	-0.0006087735
0.29048	0.0002074958
0.29056	0.0006683492
0.29064	0.0006837968
0.29072	0.0003137145
0.2908	0.0001242716
0.29088	8.680056e-6
0.29096	-0.0006052422
0.29104	-0.0004928402
0.29112	0.0002067706
0.2912	0.001369257
0.29128	0.001933243
0.29136	0.002882249
0.29144	0.003673257
0.29152	0.004917991
0.2916	0.005347119
0.29168	0.005194779
0.29176	0.005157749
0.29184	0.004966199
0.29192	0.004301706
0.292	0.003795372
0.29208	0.004229431
0.29216	0.005476169
0.29224	0.006470028
0.29232	0.007474751
0.2924	0.008466694
0.29248	0.008541741
0.29256	0.008870557
0.29264	0.009514571
0.29272	0.01076392
0.2928	0.01174016
0.29288	0.01232997
0.29296	0.01245689
0.29304	0.0121454
0.29312	0.0127824
0.2932	0.01400883
0.29328	0.01466612
0.29336	0.01417131
0.29344	0.01339421
0.29352	0.01320543
0.2936	0.01365843
0.29368	0.01387502
0.29376	0.01385508
0.29384	0.013878
0.29392	0.01398773
0.294	0.01453904
0.29408	0.01472732
0.29416	0.01487997
0.29424	0.01546722
0.29432	0.01603431
0.2944	0.01603756
0.29448	0.01605824
0.29456	0.01602598
0.29464	0.01563884
0.29472	0.01537175
0.2948	0.01581131
0.29488	0.01620754
0.29496	0.01633599
0.29504	0.01633925
0.29512	0.01610435
0.2952	0.01591356
0.29528	0.01515862
0.29536	0.0147442
0.29544	0.01387526
0.29552	0.01333653
0.2956	0.01282933
0.29568	0.01185601
0.29576	0.01165514
0.29584	0.01193995
0.29592	0.01207931
0.296	0.01210414
0.29608	0.01225919
0.29616	0.01136963
0.29624	0.01098606
0.29632	0.01125909
0.2964	0.01136252
0.29648	0.0118233
0.29656	0.01177284
0.29664	0.01167241
0.29672	0.01071041
0.2968	0.009532046
0.29688	0.008537187
0.29696	0.007816089
0.29704	0.007734223
0.29712	0.008100467
0.2972	0.008794354
0.29728	0.009280395
0.29736	0.009428062
0.29744	0.00953694
0.29752	0.009113436
0.2976	0.00822938
0.29768	0.007084856
0.29776	0.006346305
0.29784	0.006483173
0.29792	0.006264397
0.298	0.006354567
0.29808	0.006779033
0.29816	0.007180003
0.29824	0.007728007
0.29832	0.007476286
0.2984	0.006048805
0.29848	0.004845341
0.29856	0.004716955
0.29864	0.004355014
0.29872	0.003933163
0.2988	0.004264923
0.29888	0.004055395
0.29896	0.003218107
0.29904	0.003035593
0.29912	0.002973374
0.2992	0.002547557
0.29928	0.001810189
0.29936	0.0008576169
0.29944	0.0002507201
0.29952	-0.0005137577
0.2996	-0.001108956
0.29968	-0.002228561
0.29976	-0.002968933
0.29984	-0.003378058
0.29992	-0.003219725
0.3	-0.002453264
0.30008	-0.003295614
0.30016	-0.004380881
0.30024	-0.004558957
0.30032	-0.004936705
0.3004	-0.005518192
0.30048	-0.006117692
0.30056	-0.0070678
0.30064	-0.007705856
0.30072	-0.008282118
0.3008	-0.008215286
0.30088	-0.007404358
0.30096	-0.006952852
0.30104	-0.006757556
0.30112	-0.007135694
0.3012	-0.007524331
0.30128	-0.007683238
0.30136	-0.008026709
0.30144	-0.008632571
0.30152	-0.009150263
0.3016	-0.009371104
0.30168	-0.009178188
0.30176	-0.009529959
0.30184	-0.01014636
0.30192	-0.01050193
0.302	-0.01072701
0.30208	-0.01101398
0.30216	-0.01200572
0.30224	-0.01351152
0.30232	-0.01448465
0.3024	-0.01465595
0.30248	-0.01421702
0.30256	-0.01386751
0.30264	-0.01348386
0.30272	-0.01323709
0.3028	-0.01272232
0.30288	-0.01299826
0.30296	-0.01384968
0.30304	-0.01420837
0.30312	-0.01438578
0.3032	-0.01525371
0.30328	-0.01562648
0.30336	-0.01521466
0.30344	-0.01450961
0.30352	-0.01491397
0.3036	-0.01518427
0.30368	-0.01521713
0.30376	-0.01510295
0.30384	-0.01478558
0.30392	-0.01486281
0.304	-0.01491847
0.30408	-0.01465124
0.30416	-0.01486775
0.30424	-0.01497949
0.30432	-0.01514948
0.3044	-0.01520396
0.30448	-0.01498411
0.30456	-0.01440448
0.30464	-0.01404668
0.30472	-0.01360525
0.3048	-0.01356177
0.30488	-0.01404835
0.30496	-0.01477418
0.30504	-0.01485443
0.30512	-0.01532706
0.3052	-0.01548471
0.30528	-0.01482185
0.30536	-0.01370163
0.30544	-0.01349701
0.30552	-0.01306615
0.3056	-0.01270184
0.30568	-0.01248165
0.30576	-0.0120967
0.30584	-0.01176529
0.30592	-0.01095705
0.306	-0.01051739
0.30608	-0.010237
0.30616	-0.009131541
0.30624	-0.008586975
0.30632	-0.008246049
0.3064	-0.00785026
0.30648	-0.007288087
0.30656	-0.007121806
0.30664	-0.007402957
0.30672	-0.007142038
0.3068	-0.007095495
0.30688	-0.0075467
0.30696	-0.007950454
0.30704	-0.007352374
0.30712	-0.005819142
0.3072	-0.005384319
0.30728	-0.004807934
0.30736	-0.003962561
0.30744	-0.003267235
0.30752	-0.002872228
0.3076	-0.002752346
0.30768	-0.003406657
0.30776	-0.004048781
0.30784	-0.003234668
0.30792	-0.001997412
0.308	-0.001476348
0.30808	-0.0009682887
0.30816	-0.0002011519
0.30824	0.0002889781
0.30832	0.0001258248
0.3084	-0.0005974115
0.30848	-0.000761343
0.30856	-0.0004493207
0.30864	-0.0002966965
0.30872	-0.0002749184
0.3088	0.0002243975
0.30888	0.001115876
0.30896	0.001792202
0.30904	0.001544709
0.30912	0.001659608
0.3092	0.001970629
0.30928	0.002502132
0.30936	0.003535961
0.30944	0.004235701
0.30952	0.004624454
0.3096	0.005201142
0.30968	0.006209646
0.30976	0.006396521
0.30984	0.006734984
0.30992	0.007446135
0.31	0.007661601
0.31008	0.007618879
0.31016	0.007978085
0.31024	0.008227312
0.31032	0.008179692
0.3104	0.008088103
0.31048	0.00855188
0.31056	0.009323028
0.31064	0.009796097
0.31072	0.01019051
0.3108	0.01089702
0.31088	0.01134351
0.31096	0.01176078
0.31104	0.01285842
0.31112	0.0139516
0.3112	0.01456048
0.31128	0.01413166
0.31136	0.01361461
0.31144	0.01261257
0.31152	0.01200989
0.3116	0.01178459
0.31168	0.01178709
0.31176	0.01149373
0.31184	0.01141164
0.31192	0.01098074
0.312	0.01026017
0.31208	0.01027941
0.31216	0.00996492
0.31224	0.009697474
0.31232	0.009501093
0.3124	0.009255776
0.31248	0.009607372
0.31256	0.01074977
0.31264	0.01190343
0.31272	0.01245194
0.3128	0.0127012
0.31288	0.01262305
0.31296	0.01234291
0.31304	0.01262784
0.31312	0.01232065
0.3132	0.01168123
0.31328	0.01134244
0.31336	0.01082606
0.31344	0.01065268
0.31352	0.01113748
0.3136	0.01211215
0.31368	0.01245688
0.31376	0.01255306
0.31384	0.01337817
0.31392	0.01405495
0.314	0.0150708
0.31408	0.01598621
0.31416	0.01629125
0.31424	0.01622471
0.31432	0.01604706
0.3144	0.01539398
0.31448	0.01469369
0.31456	0.01402016
0.31464	0.01441271
0.31472	0.01509816
0.3148	0.01495546
0.31488	0.01422583
0.31496	0.01363638
0.31504	0.01304678
0.31512	0.01262562
0.3152	0.01272414
0.31528	0.01251292
0.31536	0.01199892
0.31544	0.01185707
0.31552	0.01178001
0.3156	0.012283
0.31568	0.01254157
0.31576	0.01270602
0.31584	0.01259941
0.31592	0.01181004
0.316	0.01137201
0.31608	0.01138214
0.31616	0.01129741
0.31624	0.01097621
0.31632	0.01054961
0.3164	0.009609561
0.31648	0.009136013
0.31656	0.007964789
0.31664	0.007685737
0.31672	0.007733738
0.3168	0.00774001
0.31688	0.007666483
0.31696	0.007718125
0.31704	0.008206277
0.31712	0.008359321
0.3172	0.008092337
0.31728	0.008091663
0.31736	0.008616586
0.31744	0.008726279
0.31752	0.007905951
0.3176	0.007460657
0.31768	0.007414378
0.31776	0.006788475
0.31784	0.005534492
0.31792	0.004026565
0.318	0.003448961
0.31808	0.003091989
0.31816	0.00325008
0.31824	0.00356841
0.31832	0.003339052
0.3184	0.002694912
0.31848	0.002106165
0.31856	0.001452464
0.31864	0.0004787284
0.31872	-0.0002124277
0.3188	-0.0002594237
0.31888	-1.531943e-5
0.31896	-0.0003969078
0.31904	-0.0006270579
0.31912	-0.0006526522
0.3192	-0.0004948545
0.31928	-0.0004830962
0.31936	-0.001104073
0.31944	-0.001815173
0.31952	-0.001794277
0.3196	-0.001243328
0.31968	-0.000978708
0.31976	-0.0008747937
0.31984	-0.0008594854
0.31992	-0.001013462
0.32	-0.001154761
0.32008	-0.001694227
0.32016	-0.002689256
0.32024	-0.003686534
0.32032	-0.004433406
0.3204	-0.005103223
0.32048	-0.005338283
0.32056	-0.005883882
0.32064	-0.006162665
0.32072	-0.006629463
0.3208	-0.007244538
0.32088	-0.007491649
0.32096	-0.007323082
0.32104	-0.006627053
0.32112	-0.006813001
0.3212	-0.007965564
0.32128	-0.008868069
0.32136	-0.009177884
0.32144	-0.01000996
0.32152	-0.01083148
0.3216	-0.01135034
0.32168	-0.01205309
0.32176	-0.01259767
0.32184	-0.01258842
0.32192	-0.01257731
0.322	-0.01260241
0.32208	-0.01356534
0.32216	-0.01432148
0.32224	-0.01469649
0.32232	-0.01498151
0.3224	-0.01510818
0.32248	-0.01515153
0.32256	-0.01498932
0.32264	-0.01495024
0.32272	-0.013917
0.3228	-0.01286542
0.32288	-0.01210021
0.32296	-0.01219243
0.32304	-0.01241001
0.32312	-0.01288783
0.3232	-0.01368209
0.32328	-0.01394193
0.32336	-0.01423042
0.32344	-0.01452449
0.32352	-0.01492704
0.3236	-0.01517659
0.32368	-0.01564959
0.32376	-0.01541999
0.32384	-0.01544407
0.32392	-0.01509272
0.324	-0.01508288
0.32408	-0.01518151
0.32416	-0.01544345
0.32424	-0.01642453
0.32432	-0.01736954
0.3244	-0.01735071
0.32448	-0.01721454
0.32456	-0.01770686
0.32464	-0.0182203
0.32472	-0.01858597
0.3248	-0.01820687
0.32488	-0.01799037
0.32496	-0.0185899
0.32504	-0.01850276
0.32512	-0.01871166
0.3252	-0.01863603
0.32528	-0.01771772
0.32536	-0.01771786
0.32544	-0.0173851
0.32552	-0.01651081
0.3256	-0.01555531
0.32568	-0.01522106
0.32576	-0.01472363
0.32584	-0.01431139
0.32592	-0.01391983
0.326	-0.01346566
0.32608	-0.01335006
0.32616	-0.01367053
0.32624	-0.01371295
0.32632	-0.01346995
0.3264	-0.0132441
0.32648	-0.01295113
0.32656	-0.01234585
0.32664	-0.01191144
0.32672	-0.01232275
0.3268	-0.01242411
0.32688	-0.01261068
0.32696	-0.0123284
0.32704	-0.01199827
0.32712	-0.01193876
0.3272	-0.01144383
0.32728	-0.01108979
0.32736	-0.01108788
0.32744	-0.01075932
0.32752	-0.009815606
0.3276	-0.009813864
0.32768	-0.009907917
0.32776	-0.009874383
0.32784	-0.009332036
0.32792	-0.008344484
0.328	-0.00736417
0.32808	-0.006326862
0.32816	-0.005390598
0.32824	-0.00459347
0.32832	-0.004402475
0.3284	-0.003576338
0.32848	-0.002730873
0.32856	-0.001992012
0.32864	-0.001002463
0.32872	-6.318295e-5
0.3288	0.000862419
0.32888	0.002201087
0.32896	0.003416401
0.32904	0.003561757
0.32912	0.003403026
0.3292	0.00382247
0.32928	0.005167936
0.32936	0.006742344
0.32944	0.007120349
0.32952	0.007039464
0.3296	0.006929462
0.32968	0.007683696
0.32976	0.007903684
0.32984	0.007636724
0.32992	0.007368341
0.33	0.007811289
0.33008	0.008092712
0.33016	0.008718604
0.33024	0.009187702
0.33032	0.009266221
0.3304	0.009478568
0.33048	0.00958169
0.33056	0.009293202
0.33064	0.009461155
0.33072	0.0103269
0.3308	0.01102451
0.33088	0.01153773
0.33096	0.01182535
0.33104	0.01182095
0.33112	0.01268332
0.3312	0.01329589
0.33128	0.01355283
0.33136	0.01398075
0.33144	0.01423608
0.33152	0.01405074
0.3316	0.01437861
0.33168	0.01367707
0.33176	0.0128066
0.33184	0.01231606
0.33192	0.01251345
0.332	0.01263787
0.33208	0.01224429
0.33216	0.01206981
0.33224	0.01215053
0.33232	0.01265759
0.3324	0.01292917
0.33248	0.01379331
0.33256	0.01513739
0.33264	0.01585923
0.33272	0.01584072
0.3328	0.01616964
0.33288	0.01589779
0.33296	0.0150337
0.33304	0.01413968
0.33312	0.01386814
0.3332	0.01434668
0.33328	0.0149612
0.33336	0.01513253
0.33344	0.01586761
0.33352	0.01604338
0.3336	0.01535367
0.33368	0.01491097
0.33376	0.01390471
0.33384	0.01336174
0.33392	0.01309795
0.334	0.01343728
0.33408	0.01385896
0.33416	0.01445456
0.33424	0.01477716
0.33432	0.01449797
0.3344	0.0146801
0.33448	0.01496982
0.33456	0.01546322
0.33464	0.01559538
0.33472	0.01584068
0.3348	0.01654829
0.33488	0.01581019
0.33496	0.01505675
0.33504	0.01487791
0.33512	0.01510198
0.3352	0.01507924
0.33528	0.01467726
0.33536	0.0134584
0.33544	0.01254503
0.33552	0.01204153
0.3356	0.01171482
0.33568	0.01165447
0.33576	0.01190757
0.33584	0.01210705
0.33592	0.01179634
0.336	0.01158049
0.33608	0.01073471
0.33616	0.01051047
0.33624	0.01036798
0.33632	0.009565721
0.3364	0.008551576
0.33648	0.007761391
0.33656	0.006696045
0.33664	0.005602419
0.33672	0.005282942
0.3368	0.005378793
0.33688	0.00564799
0.33696	0.006485067
0.33704	0.006908167
0.33712	0.006768688
0.3372	0.006892576
0.33728	0.007044476
0.33736	0.006771049
0.33744	0.006163162
0.33752	0.005110977
0.3376	0.004032633
0.33768	0.003012374
0.33776	0.002377876
0.33784	0.002192606
0.33792	0.002042449
0.338	0.001954231
0.33808	0.001803839
0.33816	0.001383537
0.33824	0.0006861851
0.33832	0.0003460492
0.3384	-9.033005e-5
0.33848	0.0002665013
0.33856	0.0006909199
0.33864	0.0001749166
0.33872	-0.0002732372
0.3388	-0.0004866994
0.33888	-0.0009460755
0.33896	-0.001264315
0.33904	-0.001430537
0.33912	-0.002222337
0.3392	-0.002845303
0.33928	-0.002849647
0.33936	-0.002480323
0.33944	-0.002896282
0.33952	-0.004038057
0.3396	-0.004916043
0.33968	-0.005437147
0.33976	-0.005785938
0.33984	-0.005943122
0.33992	-0.005705937
0.34	-0.005653977
0.34008	-0.005910234
0.34016	-0.006333449
0.34024	-0.007131191
0.34032	-0.007114737
0.3404	-0.006871242
0.34048	-0.006423798
0.34056	-0.005743996
0.34064	-0.005986209
0.34072	-0.00589928
0.3408	-0.00591178
0.34088	-0.005472967
0.34096	-0.005274832
0.34104	-0.005841459
0.34112	-0.006672791
0.3412	-0.006637049
0.34128	-0.00643586
0.34136	-0.006918359
0.34144	-0.007128206
0.34152	-0.00767512
0.3416	-0.008600304
0.34168	-0.009304648
0.34176	-0.009873707
0.34184	-0.01042139
0.34192	-0.0103155
0.342	-0.01027074
0.34208	-0.01059017
0.34216	-0.01140836
0.34224	-0.01149564
0.34232	-0.01082919
0.3424	-0.01095528
0.34248	-0.01043983
0.34256	-0.01039767
0.34264	-0.01084867
0.34272	-0.01034098
0.3428	-0.01003641
0.34288	-0.01030472
0.34296	-0.01035421
0.34304	-0.01030212
0.34312	-0.01087557
0.3432	-0.01141503
0.34328	-0.01154126
0.34336	-0.0117025
0.34344	-0.01186845
0.34352	-0.01157688
0.3436	-0.01119495
0.34368	-0.01097506
0.34376	-0.01106683
0.34384	-0.01147904
0.34392	-0.01210073
0.344	-0.01219666
0.34408	-0.01268567
0.34416	-0.01278303
0.34424	-0.01309582
0.34432	-0.0132812
0.3444	-0.01379992
0.34448	-0.0140601
0.34456	-0.01390736
0.34464	-0.01373646
0.34472	-0.01354709
0.3448	-0.0138997
0.34488	-0.01350549
0.34496	-0.01368629
0.34504	-0.01414272
0.34512	-0.01398113
0.3452	-0.01344606
0.34528	-0.01403002
0.34536	-0.01467051
0.34544	-0.0148679
0.34552	-0.01471555
0.3456	-0.01438063
0.34568	-0.01412681
0.34576	-0.01390469
0.34584	-0.01367585
0.34592	-0.01387225
0.346	-0.01409351
0.34608	-0.01424241
0.34616	-0.0139204
0.34624	-0.01326382
0.34632	-0.01261606
0.3464	-0.01229069
0.34648	-0.01212472
0.34656	-0.01248594
0.34664	-0.01295436
0.34672	-0.01356792
0.3468	-0.01354021
0.34688	-0.01295313
0.34696	-0.01180707
0.34704	-0.01039862
0.34712	-0.009395981
0.3472	-0.009074207
0.34728	-0.008616221
0.34736	-0.008346898
0.34744	-0.008269644
0.34752	-0.008121815
0.3476	-0.007434699
0.34768	-0.006981265
0.34776	-0.006642223
0.34784	-0.006117839
0.34792	-0.005251159
0.348	-0.004771132
0.34808	-0.00453116
0.34816	-0.004129431
0.34824	-0.004194648
0.34832	-0.004494803
0.3484	-0.004359694
0.34848	-0.00404164
0.34856	-0.004051759
0.34864	-0.00398226
0.34872	-0.003195789
0.3488	-0.002217
0.34888	-0.001167248
0.34896	0.0001173677
0.34904	0.00127495
0.34912	0.002153169
0.3492	0.002617657
0.34928	0.002858173
0.34936	0.002965902
0.34944	0.002452763
0.34952	0.001615817
0.3496	0.001482095
0.34968	0.001308221
0.34976	0.001326998
0.34984	0.001527463
0.34992	0.001669558
0.35	0.001537303
0.35008	0.0005884278
0.35016	2.226488e-5
0.35024	0.0001376078
0.35032	0.001152772
0.3504	0.002148571
0.35048	0.002709349
0.35056	0.003547801
0.35064	0.004178454
0.35072	0.004188287
0.3508	0.00461645
0.35088	0.004982711
0.35096	0.005512408
0.35104	0.005602286
0.35112	0.005855865
0.3512	0.006181125
0.35128	0.006155321
0.35136	0.006461292
0.35144	0.006705676
0.35152	0.007588313
0.3516	0.008022181
0.35168	0.008333375
0.35176	0.008210442
0.35184	0.008256183
0.35192	0.008166528
0.352	0.008034207
0.35208	0.008365381
0.35216	0.008710844
0.35224	0.008981837
0.35232	0.009432554
0.3524	0.01011358
0.35248	0.01088065
0.35256	0.01152404
0.35264	0.01217045
0.35272	0.01254563
0.3528	0.01279757
0.35288	0.01325915
0.35296	0.0135771
0.35304	0.013073
0.35312	0.01280302
0.3532	0.01269862
0.35328	0.01272535
0.35336	0.01234935
0.35344	0.01182146
0.35352	0.01197556
0.3536	0.0118499
0.35368	0.01258675
0.35376	0.01294234
0.35384	0.01282402
0.35392	0.01254442
0.354	0.01264931
0.35408	0.01286664
0.35416	0.01304579
0.35424	0.01304972
0.35432	0.01289826
0.3544	0.0129605
0.35448	0.01306341
0.35456	0.01302514
0.35464	0.01276811
0.35472	0.01254212
0.3548	0.01264502
0.35488	0.01267879
0.35496	0.01265746
0.35504	0.01234225
0.35512	0.01213907
0.3552	0.01212023
0.35528	0.01150633
0.35536	0.01113234
0.35544	0.0113805
0.35552	0.01075816
0.3556	0.01034427
0.35568	0.01047319
0.35576	0.01032621
0.35584	0.01081685
0.35592	0.01101769
0.356	0.01134133
0.35608	0.01142708
0.35616	0.01120222
0.35624	0.01115
0.35632	0.01142986
0.3564	0.0115332
0.35648	0.01146773
0.35656	0.01040454
0.35664	0.009734818
0.35672	0.009373213
0.3568	0.00902026
0.35688	0.008731725
0.35696	0.008616712
0.35704	0.008244249
0.35712	0.007957819
0.3572	0.007549402
0.35728	0.006720098
0.35736	0.006405175
0.35744	0.006345188
0.35752	0.005709928
0.3576	0.005180075
0.35768	0.005006087
0.35776	0.004311693
0.35784	0.004087443
0.35792	0.00419187
0.358	0.004238763
0.35808	0.00387913
0.35816	0.00336945
0.35824	0.002724704
0.35832	0.001420723
0.3584	0.0002017149
0.35848	-0.0007828749
0.35856	-0.001584317
0.35864	-0.002143008
0.35872	-0.002515358
0.3588	-0.002766364
0.35888	-0.002592389
0.35896	-0.002528273
0.35904	-0.002291613
0.35912	-0.002484823
0.3592	-0.003325449
0.35928	-0.003681716
0.35936	-0.004223914
0.35944	-0.004868244
0.35952	-0.005445529
0.3596	-0.005546586
0.35968	-0.00551554
0.35976	-0.005793344
0.35984	-0.005856826
0.35992	-0.006328115
0.36	-0.006050478
0.36008	-0.006347219
0.36016	-0.00683774
0.36024	-0.00705025
0.36032	-0.006913755
0.3604	-0.006662766
0.36048	-0.006867534
0.36056	-0.007287323
0.36064	-0.007596492
0.36072	-0.007775542
0.3608	-0.007938717
0.36088	-0.008549392
0.36096	-0.009065107
0.36104	-0.009450467
0.36112	-0.009614948
0.3612	-0.009724034
0.36128	-0.01018909
0.36136	-0.01080471
0.36144	-0.01093303
0.36152	-0.01031925
0.3616	-0.009503893
0.36168	-0.009082053
0.36176	-0.008979758
0.36184	-0.008944144
0.36192	-0.008981957
0.362	-0.009178274
0.36208	-0.009625411
0.36216	-0.01000026
0.36224	-0.0106959
0.36232	-0.01134602
0.3624	-0.01173781
0.36248	-0.01205987
0.36256	-0.01192781
0.36264	-0.01207542
0.36272	-0.01338611
0.3628	-0.01433578
0.36288	-0.01499023
0.36296	-0.01481651
0.36304	-0.01391096
0.36312	-0.01313122
0.3632	-0.01250133
0.36328	-0.01188298
0.36336	-0.01156623
0.36344	-0.01148351
0.36352	-0.01143918
0.3636	-0.01114157
0.36368	-0.0110405
0.36376	-0.01084006
0.36384	-0.0100373
0.36392	-0.009340082
0.364	-0.008994102
0.36408	-0.008893688
0.36416	-0.008974471
0.36424	-0.008871932
0.36432	-0.008809115
0.3644	-0.00914886
0.36448	-0.009475996
0.36456	-0.009746844
0.36464	-0.009368613
0.36472	-0.009370219
0.3648	-0.009552895
0.36488	-0.00892645
0.36496	-0.008225163
0.36504	-0.007963382
0.36512	-0.008401113
0.3652	-0.008471054
0.36528	-0.008071527
0.36536	-0.007974826
0.36544	-0.007818831
0.36552	-0.008654757
0.3656	-0.009502839
0.36568	-0.009902295
0.36576	-0.009298597
0.36584	-0.008656061
0.36592	-0.007978594
0.366	-0.007713844
0.36608	-0.007285459
0.36616	-0.007081968
0.36624	-0.006722898
0.36632	-0.006751745
0.3664	-0.00686855
0.36648	-0.006618487
0.36656	-0.006192651
0.36664	-0.006688595
0.36672	-0.006876558
0.3668	-0.007009881
0.36688	-0.007656629
0.36696	-0.008106795
0.36704	-0.008563836
0.36712	-0.008296654
0.3672	-0.00784209
0.36728	-0.007383089
0.36736	-0.006577253
0.36744	-0.00597152
0.36752	-0.005827286
0.3676	-0.005376297
0.36768	-0.00456132
0.36776	-0.003887635
0.36784	-0.004510768
0.36792	-0.004616769
0.368	-0.00490014
0.36808	-0.00531257
0.36816	-0.004768849
0.36824	-0.004542884
0.36832	-0.004690811
0.3684	-0.004602562
0.36848	-0.004376639
0.36856	-0.003647929
0.36864	-0.002746651
0.36872	-0.002125785
0.3688	-0.002243006
0.36888	-0.002562511
0.36896	-0.00208951
0.36904	-0.001570791
0.36912	-0.001669932
0.3692	-0.002146824
0.36928	-0.002830349
0.36936	-0.003618501
0.36944	-0.003410657
0.36952	-0.002669484
0.3696	-0.002530612
0.36968	-0.001836385
0.36976	-0.0003235464
0.36984	0.0004928859
0.36992	0.000806472
0.37	0.001098834
0.37008	0.001184914
0.37016	0.001366213
0.37024	0.002551137
0.37032	0.003364025
0.3704	0.003414498
0.37048	0.003371313
0.37056	0.003915393
0.37064	0.004848043
0.37072	0.006053733
0.3708	0.006938036
0.37088	0.007079175
0.37096	0.007006455
0.37104	0.006671901
0.37112	0.006648966
0.3712	0.00680537
0.37128	0.006961582
0.37136	0.00755714
0.37144	0.00851633
0.37152	0.009586898
0.3716	0.009599568
0.37168	0.009469913
0.37176	0.009801441
0.37184	0.009745455
0.37192	0.009575513
0.372	0.009303286
0.37208	0.009272511
0.37216	0.009392863
0.37224	0.009184928
0.37232	0.009388299
0.3724	0.009715768
0.37248	0.01029494
0.37256	0.01054592
0.37264	0.01079453
0.37272	0.01169335
0.3728	0.01319035
0.37288	0.01406816
0.37296	0.01464823
0.37304	0.01530954
0.37312	0.01601929
0.3732	0.0164876
0.37328	0.01628844
0.37336	0.01611914
0.37344	0.01596045
0.37352	0.0153796
0.3736	0.01532218
0.37368	0.01504705
0.37376	0.01474355
0.37384	0.01467318
0.37392	0.01548285
0.374	0.01596743
0.37408	0.01639037
0.37416	0.01674598
0.37424	0.01755247
0.37432	0.0173884
0.3744	0.01678573
0.37448	0.01596233
0.37456	0.01519015
0.37464	0.01539669
0.37472	0.01556566
0.3748	0.01518764
0.37488	0.01516864
0.37496	0.01557917
0.37504	0.01577038
0.37512	0.01536502
0.3752	0.01537499
0.37528	0.01607396
0.37536	0.01630288
0.37544	0.01604899
0.37552	0.016342
0.3756	0.01639102
0.37568	0.01690822
0.37576	0.01717961
0.37584	0.01710347
0.37592	0.01713196
0.376	0.01689356
0.37608	0.01683436
0.37616	0.01677109
0.37624	0.01699752
0.37632	0.0166545
0.3764	0.01580649
0.37648	0.01520851
0.37656	0.01439935
0.37664	0.01369198
0.37672	0.01271891
0.3768	0.01214272
0.37688	0.01202081
0.37696	0.01213316
0.37704	0.01174649
0.37712	0.01042883
0.3772	0.009557748
0.37728	0.009434484
0.37736	0.009475698
0.37744	0.009357496
0.37752	0.009190069
0.3776	0.008969393
0.37768	0.008228039
0.37776	0.007480213
0.37784	0.006977743
0.37792	0.007061232
0.378	0.006853751
0.37808	0.006441341
0.37816	0.006016125
0.37824	0.005923775
0.37832	0.006140049
0.3784	0.006216567
0.37848	0.005929586
0.37856	0.005662455
0.37864	0.005661043
0.37872	0.005394177
0.3788	0.00513274
0.37888	0.005553814
0.37896	0.005420929
0.37904	0.005004494
0.37912	0.005166038
0.3792	0.004485698
0.37928	0.003582308
0.37936	0.003190565
0.37944	0.003391932
0.37952	0.003030113
0.3796	0.002736169
0.37968	0.00232907
0.37976	0.001577642
0.37984	0.0006901522
0.37992	0.0004422251
0.38	0.0003312009
0.38008	-0.00048564
0.38016	-0.0008374084
0.38024	0.000247701
0.38032	0.00156907
0.3804	0.00174137
0.38048	0.001150341
0.38056	0.001383358
0.38064	0.001715995
0.38072	0.001782539
0.3808	0.00151623
0.38088	0.0007909795
0.38096	-4.208243e-5
0.38104	-0.001378437
0.38112	-0.00220944
0.3812	-0.002172067
0.38128	-0.002263963
0.38136	-0.002490695
0.38144	-0.00281354
0.38152	-0.003122685
0.3816	-0.003310532
0.38168	-0.003908501
0.38176	-0.004965825
0.38184	-0.00593567
0.38192	-0.006437318
0.382	-0.006446527
0.38208	-0.006670851
0.38216	-0.007147215
0.38224	-0.007599568
0.38232	-0.007948247
0.3824	-0.008327992
0.38248	-0.008429889
0.38256	-0.008653677
0.38264	-0.009187819
0.38272	-0.01006252
0.3828	-0.01136013
0.38288	-0.01214814
0.38296	-0.01239969
0.38304	-0.01253332
0.38312	-0.0120453
0.3832	-0.01149671
0.38328	-0.01130873
0.38336	-0.01119028
0.38344	-0.01158265
0.38352	-0.01210934
0.3836	-0.01295656
0.38368	-0.01388805
0.38376	-0.01442759
0.38384	-0.0144519
0.38392	-0.01445396
0.384	-0.0145075
0.38408	-0.01438342
0.38416	-0.01477603
0.38424	-0.01554726
0.38432	-0.01567543
0.3844	-0.01566145
0.38448	-0.01579076
0.38456	-0.015682
0.38464	-0.01580901
0.38472	-0.01635906
0.3848	-0.01672092
0.38488	-0.01698535
0.38496	-0.016704
0.38504	-0.01612819
0.38512	-0.01601182
0.3852	-0.01519819
0.38528	-0.01489388
0.38536	-0.01516171
0.38544	-0.01473786
0.38552	-0.01390115
0.3856	-0.01421325
0.38568	-0.0143845
0.38576	-0.01439187
0.38584	-0.01404412
0.38592	-0.01379797
0.386	-0.0137635
0.38608	-0.01356955
0.38616	-0.0135287
0.38624	-0.01408625
0.38632	-0.01351415
0.3864	-0.01362777
0.38648	-0.01430314
0.38656	-0.01419818
0.38664	-0.01414535
0.38672	-0.01392127
0.3868	-0.014104
0.38688	-0.01441696
0.38696	-0.01425957
0.38704	-0.01421375
0.38712	-0.01433891
0.3872	-0.01427113
0.38728	-0.01395171
0.38736	-0.01344293
0.38744	-0.01281284
0.38752	-0.01226205
0.3876	-0.01177137
0.38768	-0.01186962
0.38776	-0.01209213
0.38784	-0.01159922
0.38792	-0.01051554
0.388	-0.009742243
0.38808	-0.009111066
0.38816	-0.008727247
0.38824	-0.009113324
0.38832	-0.009001928
0.3884	-0.008144865
0.38848	-0.007791177
0.38856	-0.007642207
0.38864	-0.006927127
0.38872	-0.005643498
0.3888	-0.005420464
0.38888	-0.005118621
0.38896	-0.004566301
0.38904	-0.00440131
0.38912	-0.004674198
0.3892	-0.005293305
0.38928	-0.006216665
0.38936	-0.006337036
0.38944	-0.006757437
0.38952	-0.007238947
0.3896	-0.007652513
0.38968	-0.007584473
0.38976	-0.006765316
0.38984	-0.005854132
0.38992	-0.005008887
0.39	-0.004507774
0.39008	-0.00432654
0.39016	-0.003844473
0.39024	-0.003648047
0.39032	-0.003827237
0.3904	-0.004181328
0.39048	-0.004035474
0.39056	-0.004148637
0.39064	-0.003671573
0.39072	-0.003151863
0.3908	-0.002164539
0.39088	-0.0007744259
0.39096	0.0001721059
0.39104	0.00141037
0.39112	0.00258362
0.3912	0.003510692
0.39128	0.003583944
0.39136	0.003644451
0.39144	0.004082919
0.39152	0.004344886
0.3916	0.004873712
0.39168	0.005105361
0.39176	0.00506788
0.39184	0.005309079
0.39192	0.005575598
0.392	0.006367645
0.39208	0.006425126
0.39216	0.006687467
0.39224	0.007019801
0.39232	0.007675122
0.3924	0.008976536
0.39248	0.009737511
0.39256	0.00961267
0.39264	0.01012561
0.39272	0.01095603
0.3928	0.01151886
0.39288	0.01139427
0.39296	0.01160103
0.39304	0.01171982
0.39312	0.01166512
0.3932	0.01126031
0.39328	0.01104357
0.39336	0.012021
0.39344	0.01257497
0.39352	0.01260663
0.3936	0.01244645
0.39368	0.01236523
0.39376	0.01230478
0.39384	0.01224221
0.39392	0.01240859
0.394	0.0120429
0.39408	0.01127966
0.39416	0.01149634
0.39424	0.01209773
0.39432	0.0116499
0.3944	0.0108971
0.39448	0.01061122
0.39456	0.01075554
0.39464	0.01083223
0.39472	0.01116601
0.3948	0.01224409
0.39488	0.01274774
0.39496	0.01290575
0.39504	0.01268905
0.39512	0.01256217
0.3952	0.01233395
0.39528	0.01229074
0.39536	0.01214089
0.39544	0.01146094
0.39552	0.01062869
0.3956	0.0101736
0.39568	0.01022738
0.39576	0.01049536
0.39584	0.01054452
0.39592	0.01053886
0.396	0.01035156
0.39608	0.01106145
0.39616	0.01180928
0.39624	0.01199181
0.39632	0.01230896
0.3964	0.01262456
0.39648	0.01277057
0.39656	0.01261547
0.39664	0.01230941
0.39672	0.01246401
0.3968	0.01263124
0.39688	0.01259313
0.39696	0.01249621
0.39704	0.01267397
0.39712	0.01335907
0.3972	0.01326665
0.39728	0.0129898
0.39736	0.0132129
0.39744	0.0135788
0.39752	0.01317711
0.3976	0.0121842
0.39768	0.01183546
0.39776	0.01209125
0.39784	0.01245574
0.39792	0.01247612
0.398	0.01328699
0.39808	0.01417381
0.39816	0.01382515
0.39824	0.01295396
0.39832	0.01259643
0.3984	0.01306071
0.39848	0.01361275
0.39856	0.01357531
0.39864	0.01294116
0.39872	0.01237744
0.3988	0.01164554
0.39888	0.01092491
0.39896	0.01020096
0.39904	0.009317365
0.39912	0.008306835
0.3992	0.007518312
0.39928	0.007598808
0.39936	0.007557775
0.39944	0.00708936
0.39952	0.006747372
0.3996	0.006096163
0.39968	0.005854215
0.39976	0.00558438
0.39984	0.004685905
0.39992	0.003840118
0.4	0.002921772
0.40008	0.002762222
0.40016	0.002713476
0.40024	0.00212028
0.40032	0.002007675
0.4004	0.002402883
0.40048	0.002555486
0.40056	0.002818281
0.40064	0.00279937
0.40072	0.002926416
0.4008	0.002129916
0.40088	0.0007366499
0.40096	-0.0009780239
0.40104	-0.00313799
0.40112	-0.003833559
0.4012	-0.004607459
0.40128	-0.004973599
0.40136	-0.005210127
0.40144	-0.005905131
0.40152	-0.007457058
0.4016	-0.009053456
0.40168	-0.009436873
0.40176	-0.009797254
0.40184	-0.009834641
0.40192	-0.009450107
0.402	-0.009531013
0.40208	-0.009689973
0.40216	-0.01001525
0.40224	-0.009804533
0.40232	-0.009382779
0.4024	-0.009643172
0.40248	-0.01007666
0.40256	-0.01035472
0.40264	-0.01082573
0.40272	-0.01141614
0.4028	-0.01199729
0.40288	-0.01186448
0.40296	-0.01125529
0.40304	-0.01076442
0.40312	-0.01068369
0.4032	-0.01070576
0.40328	-0.01038446
0.40336	-0.009990559
0.40344	-0.009561487
0.40352	-0.009375474
0.4036	-0.009773104
0.40368	-0.009791599
0.40376	-0.00966404
0.40384	-0.009651791
0.40392	-0.009748191
0.404	-0.01032692
0.40408	-0.01083034
0.40416	-0.01071826
0.40424	-0.010605
0.40432	-0.01038771
0.4044	-0.01041878
0.40448	-0.01041414
0.40456	-0.01103184
0.40464	-0.01191124
0.40472	-0.01233742
0.4048	-0.01214264
0.40488	-0.01193898
0.40496	-0.01162
0.40504	-0.01145963
0.40512	-0.01117479
0.4052	-0.01098014
0.40528	-0.01060445
0.40536	-0.01039201
0.40544	-0.0106656
0.40552	-0.01142434
0.4056	-0.01204191
0.40568	-0.0123798
0.40576	-0.01291585
0.40584	-0.01280966
0.40592	-0.01286828
0.406	-0.01276532
0.40608	-0.01243712
0.40616	-0.01174282
0.40624	-0.01106549
0.40632	-0.01014037
0.4064	-0.00937665
0.40648	-0.008908493
0.40656	-0.009274792
0.40664	-0.009649335
0.40672	-0.009413027
0.4068	-0.00907602
0.40688	-0.008856939
0.40696	-0.009098462
0.40704	-0.009151615
0.40712	-0.008735218
0.4072	-0.008322022
0.40728	-0.007935319
0.40736	-0.007724069
0.40744	-0.007513987
0.40752	-0.006933483
0.4076	-0.006107564
0.40768	-0.005138278
0.40776	-0.004699331
0.40784	-0.003807203
0.40792	-0.002499503
0.408	-0.001936935
0.40808	-0.001989592
0.40816	-0.001931794
0.40824	-0.001495121
0.40832	-0.0008712561
0.4084	-0.0004431737
0.40848	-0.001027954
0.40856	-0.001919133
0.40864	-0.002864219
0.40872	-0.003150543
0.4088	-0.003355553
0.40888	-0.00338128
0.40896	-0.003696125
0.40904	-0.003773885
0.40912	-0.004437845
0.4092	-0.004400489
0.40928	-0.003728001
0.40936	-0.003807387
0.40944	-0.004560924
0.40952	-0.005128953
0.4096	-0.004696896
0.40968	-0.003893882
0.40976	-0.003085891
0.40984	-0.001946062
0.40992	-0.001227061
0.41	-0.0003068458
0.41008	0.001348352
0.41016	0.002445047
0.41024	0.003325521
0.41032	0.003963103
0.4104	0.004038604
0.41048	0.004225651
0.41056	0.00427897
0.41064	0.004122714
0.41072	0.003354151
0.4108	0.002869726
0.41088	0.002167416
0.41096	0.001373722
0.41104	0.001826077
0.41112	0.002909803
0.4112	0.003476211
0.41128	0.003810606
0.41136	0.003984828
0.41144	0.004036613
0.41152	0.00405195
0.4116	0.004081408
0.41168	0.004459892
0.41176	0.004873715
0.41184	0.005685618
0.41192	0.006245615
0.412	0.006801252
0.41208	0.006541027
0.41216	0.006075435
0.41224	0.0062425
0.41232	0.00728095
0.4124	0.007838561
0.41248	0.008019965
0.41256	0.008227281
0.41264	0.00836189
0.41272	0.008368377
0.4128	0.008279972
0.41288	0.008158184
0.41296	0.007970942
0.41304	0.007345246
0.41312	0.007116912
0.4132	0.007580318
0.41328	0.008666615
0.41336	0.008992556
0.41344	0.009137081
0.41352	0.008155758
0.4136	0.007961952
0.41368	0.008517632
0.41376	0.008271515
0.41384	0.008841043
0.41392	0.009234308
0.414	0.009645551
0.41408	0.009766955
0.41416	0.009535473
0.41424	0.009703992
0.41432	0.01022431
0.4144	0.01061377
0.41448	0.01108413
0.41456	0.01111418
0.41464	0.01108551
0.41472	0.01130575
0.4148	0.01185796
0.41488	0.01218624
0.41496	0.01161371
0.41504	0.01062063
0.41512	0.010138
0.4152	0.01014541
0.41528	0.01038898
0.41536	0.01051535
0.41544	0.01075121
0.41552	0.01086481
0.4156	0.01113485
0.41568	0.01128382
0.41576	0.01174088
0.41584	0.01242599
0.41592	0.01235257
0.416	0.012433
0.41608	0.01251038
0.41616	0.01236576
0.41624	0.01219704
0.41632	0.01187668
0.4164	0.01098921
0.41648	0.01052914
0.41656	0.009694614
0.41664	0.009208458
0.41672	0.009190514
0.4168	0.009298628
0.41688	0.009308954
0.41696	0.00876869
0.41704	0.008476718
0.41712	0.008569322
0.4172	0.008647408
0.41728	0.008837822
0.41736	0.008148522
0.41744	0.007410491
0.41752	0.007759948
0.4176	0.007954594
0.41768	0.007914141
0.41776	0.007185624
0.41784	0.006168795
0.41792	0.005347173
0.418	0.004335973
0.41808	0.003853534
0.41816	0.0037115
0.41824	0.003764904
0.41832	0.003911192
0.4184	0.003577101
0.41848	0.003198948
0.41856	0.003007986
0.41864	0.002078468
0.41872	0.001147574
0.4188	0.001020353
0.41888	0.001546516
0.41896	0.001807872
0.41904	0.0009734256
0.41912	0.0001435504
0.4192	-0.000199953
0.41928	-0.0005787484
0.41936	-0.001223253
0.41944	-0.001883048
0.41952	-0.001632738
0.4196	-0.001523875
0.41968	-0.002676419
0.41976	-0.003303267
0.41984	-0.003216747
0.41992	-0.003558119
0.42	-0.003942887
0.42008	-0.0038933
0.42016	-0.003997194
0.42024	-0.003927435
0.42032	-0.003508667
0.4204	-0.003179006
0.42048	-0.003125288
0.42056	-0.002894948
0.42064	-0.003088613
0.42072	-0.003810104
0.4208	-0.004970722
0.42088	-0.005932459
0.42096	-0.006381322
0.42104	-0.007492424
0.42112	-0.00803594
0.4212	-0.008261194
0.42128	-0.00832833
0.42136	-0.008915657
0.42144	-0.009293016
0.42152	-0.009785097
0.4216	-0.009498363
0.42168	-0.008625086
0.42176	-0.008008518
0.42184	-0.008176753
0.42192	-0.008828027
0.422	-0.009321892
0.42208	-0.009805025
0.42216	-0.01042805
0.42224	-0.01127355
0.42232	-0.01177154
0.4224	-0.01167709
0.42248	-0.01200994
0.42256	-0.01268216
0.42264	-0.01270142
0.42272	-0.01212126
0.4228	-0.01198914
0.42288	-0.01253476
0.42296	-0.01318536
0.42304	-0.01391941
0.42312	-0.01446598
0.4232	-0.01480473
0.42328	-0.01553969
0.42336	-0.01602931
0.42344	-0.01535646
0.42352	-0.01403486
0.4236	-0.01291395
0.42368	-0.01233352
0.42376	-0.01176727
0.42384	-0.01192533
0.42392	-0.01252006
0.424	-0.01250873
0.42408	-0.01206216
0.42416	-0.01217901
0.42424	-0.01222436
0.42432	-0.01189751
0.4244	-0.01160271
0.42448	-0.01167438
0.42456	-0.01227777
0.42464	-0.01249633
0.42472	-0.01234297
0.4248	-0.0119796
0.42488	-0.01151317
0.42496	-0.01094826
0.42504	-0.01076488
0.42512	-0.01070083
0.4252	-0.01020412
0.42528	-0.009879676
0.42536	-0.009405195
0.42544	-0.009317125
0.42552	-0.0101137
0.4256	-0.0107862
0.42568	-0.01110262
0.42576	-0.01125826
0.42584	-0.01148418
0.42592	-0.01176262
0.426	-0.01128764
0.42608	-0.01088492
0.42616	-0.01077201
0.42624	-0.0108853
0.42632	-0.0112101
0.4264	-0.01062758
0.42648	-0.009367529
0.42656	-0.008799369
0.42664	-0.008757043
0.42672	-0.009004656
0.4268	-0.009458797
0.42688	-0.00901975
0.42696	-0.008669812
0.42704	-0.008345587
0.42712	-0.008044284
0.4272	-0.008141768
0.42728	-0.008427733
0.42736	-0.008198845
0.42744	-0.007768558
0.42752	-0.007405889
0.4276	-0.006643357
0.42768	-0.006171077
0.42776	-0.005557429
0.42784	-0.004730686
0.42792	-0.00396735
0.428	-0.00324048
0.42808	-0.002711836
0.42816	-0.002194023
0.42824	-0.002541417
0.42832	-0.003219251
0.4284	-0.003165298
0.42848	-0.003206607
0.42856	-0.00313587
0.42864	-0.002474491
0.42872	-0.002354245
0.4288	-0.001790062
0.42888	-0.001854798
0.42896	-0.001566963
0.42904	-0.001574642
0.42912	-0.001517865
0.4292	-0.001961673
0.42928	-0.002182946
0.42936	-0.002603378
0.42944	-0.002815398
0.42952	-0.002410152
0.4296	-0.002107021
0.42968	-0.001277431
0.42976	-0.0002514905
0.42984	0.0001210887
0.42992	-0.0007196522
0.43	-0.0007843363
0.43008	1.021748e-5
0.43016	0.000564027
0.43024	0.001253724
0.43032	0.00190506
0.4304	0.00238952
0.43048	0.001963693
0.43056	0.001878763
0.43064	0.001372413
0.43072	0.0009879073
0.4308	0.00165983
0.43088	0.002811615
0.43096	0.003381113
0.43104	0.003738506
0.43112	0.00433793
0.4312	0.004555864
0.43128	0.005089315
0.43136	0.006419107
0.43144	0.00706406
0.43152	0.00741031
0.4316	0.007663107
0.43168	0.008015281
0.43176	0.008328049
0.43184	0.008332982
0.43192	0.008706175
0.432	0.009391582
0.43208	0.009946593
0.43216	0.01042637
0.43224	0.01092967
0.43232	0.01128126
0.4324	0.0113773
0.43248	0.01168777
0.43256	0.01210204
0.43264	0.01305374
0.43272	0.01405936
0.4328	0.01492242
0.43288	0.01534588
0.43296	0.01548508
0.43304	0.01573752
0.43312	0.01546141
0.4332	0.01549349
0.43328	0.0158842
0.43336	0.01680804
0.43344	0.01723181
0.43352	0.01756635
0.4336	0.01758508
0.43368	0.01756064
0.43376	0.01734314
0.43384	0.01735729
0.43392	0.01724308
0.434	0.01778699
0.43408	0.0183022
0.43416	0.01863671
0.43424	0.01876335
0.43432	0.01888325
0.4344	0.01929492
0.43448	0.01970529
0.43456	0.02029899
0.43464	0.0206007
0.43472	0.02069205
0.4348	0.02105718
0.43488	0.02142273
0.43496	0.02111356
0.43504	0.02121251
0.43512	0.02114228
0.4352	0.0207346
0.43528	0.02055122
0.43536	0.02010063
0.43544	0.02033281
0.43552	0.02065523
0.4356	0.02040153
0.43568	0.02047276
0.43576	0.02046876
0.43584	0.02007205
0.43592	0.01985043
0.436	0.01894152
0.43608	0.01747471
0.43616	0.01628498
0.43624	0.01521209
0.43632	0.01420116
0.4364	0.01426919
0.43648	0.01441524
0.43656	0.01343641
0.43664	0.01265516
0.43672	0.01231864
0.4368	0.01299952
0.43688	0.01370313
0.43696	0.01356915
0.43704	0.0133649
0.43712	0.01320786
0.4372	0.01255929
0.43728	0.01192573
0.43736	0.01176711
0.43744	0.01172383
0.43752	0.01060617
0.4376	0.009159925
0.43768	0.007722682
0.43776	0.007109702
0.43784	0.007264363
0.43792	0.007327867
0.438	0.007634765
0.43808	0.007803125
0.43816	0.006843323
0.43824	0.005836861
0.43832	0.005605189
0.4384	0.005462493
0.43848	0.00584312
0.43856	0.005743094
0.43864	0.004787183
0.43872	0.003687305
0.4388	0.003381054
0.43888	0.00347667
0.43896	0.003393441
0.43904	0.00362407
0.43912	0.004131076
0.4392	0.003654503
0.43928	0.002582341
0.43936	0.001737859
0.43944	0.0004189019
0.43952	-0.0004586004
0.4396	-0.001887184
0.43968	-0.002369174
0.43976	-0.002389244
0.43984	-0.003266311
0.43992	-0.003966335
0.44	-0.003901638
0.44008	-0.003945034
0.44016	-0.004030186
0.44024	-0.004929181
0.44032	-0.006054109
0.4404	-0.006775473
0.44048	-0.007646832
0.44056	-0.008271724
0.44064	-0.009116624
0.44072	-0.008740343
0.4408	-0.008141736
0.44088	-0.00869082
0.44096	-0.009787757
0.44104	-0.01076285
0.44112	-0.01073093
0.4412	-0.010851
0.44128	-0.01122501
0.44136	-0.01149565
0.44144	-0.01153354
0.44152	-0.01234404
0.4416	-0.01329378
0.44168	-0.01319698
0.44176	-0.01275831
0.44184	-0.01282153
0.44192	-0.01354995
0.442	-0.01428492
0.44208	-0.01474998
0.44216	-0.01538398
0.44224	-0.01572286
0.44232	-0.01514592
0.4424	-0.01506618
0.44248	-0.01479208
0.44256	-0.01530129
0.44264	-0.01537068
0.44272	-0.01547861
0.4428	-0.01567921
0.44288	-0.01610659
0.44296	-0.01623639
0.44304	-0.01640062
0.44312	-0.01680578
0.4432	-0.01657319
0.44328	-0.01630991
0.44336	-0.01622333
0.44344	-0.01633547
0.44352	-0.01726403
0.4436	-0.01749172
0.44368	-0.01765726
0.44376	-0.01808889
0.44384	-0.01850623
0.44392	-0.01873344
0.444	-0.01810694
0.44408	-0.01735368
0.44416	-0.01697269
0.44424	-0.01696899
0.44432	-0.01618888
0.4444	-0.01579861
0.44448	-0.01544075
0.44456	-0.01518833
0.44464	-0.01475918
0.44472	-0.01490472
0.4448	-0.01476763
0.44488	-0.01414301
0.44496	-0.01378299
0.44504	-0.01443304
0.44512	-0.01485681
0.4452	-0.0150277
0.44528	-0.01518591
0.44536	-0.01531675
0.44544	-0.01547263
0.44552	-0.015612
0.4456	-0.01594767
0.44568	-0.01664118
0.44576	-0.016504
0.44584	-0.01608644
0.44592	-0.01546656
0.446	-0.0147282
0.44608	-0.01431747
0.44616	-0.0149437
0.44624	-0.01593352
0.44632	-0.01602277
0.4464	-0.01571959
0.44648	-0.0159169
0.44656	-0.01589374
0.44664	-0.01627806
0.44672	-0.01641161
0.4468	-0.016501
0.44688	-0.01633394
0.44696	-0.01574361
0.44704	-0.01586998
0.44712	-0.01686465
0.4472	-0.018254
0.44728	-0.01829914
0.44736	-0.01817699
0.44744	-0.01732827
0.44752	-0.01582972
0.4476	-0.0146492
0.44768	-0.01330731
0.44776	-0.01234115
0.44784	-0.01144388
0.44792	-0.01070816
0.448	-0.01001133
0.44808	-0.009512999
0.44816	-0.009410401
0.44824	-0.00903225
0.44832	-0.009305805
0.4484	-0.00971882
0.44848	-0.0100203
0.44856	-0.01019469
0.44864	-0.00955104
0.44872	-0.008749113
0.4488	-0.00803363
0.44888	-0.007474027
0.44896	-0.007227278
0.44904	-0.006410038
0.44912	-0.004378496
0.4492	-0.003227218
0.44928	-0.002639416
0.44936	-0.002566189
0.44944	-0.003084301
0.44952	-0.002989459
0.4496	-0.002885913
0.44968	-0.002530726
0.44976	-0.002294476
0.44984	-0.002277368
0.44992	-0.001532799
0.45	-0.0009153693
0.45008	-0.000876349
0.45016	-0.0002428091
0.45024	0.0006365757
0.45032	0.001359746
0.4504	0.002044276
0.45048	0.002577914
0.45056	0.002932776
0.45064	0.00331588
0.45072	0.00373043
0.4508	0.004255617
0.45088	0.004919842
0.45096	0.005089359
0.45104	0.005832648
0.45112	0.006779554
0.4512	0.00799927
0.45128	0.009020113
0.45136	0.008978896
0.45144	0.008802478
0.45152	0.008645055
0.4516	0.008414394
0.45168	0.008300339
0.45176	0.008075577
0.45184	0.008084513
0.45192	0.008892434
0.452	0.01034199
0.45208	0.01164397
0.45216	0.01212379
0.45224	0.01185183
0.45232	0.01182175
0.4524	0.01203965
0.45248	0.01214607
0.45256	0.01173395
0.45264	0.01155215
0.45272	0.01196912
0.4528	0.01178893
0.45288	0.0120203
0.45296	0.01269035
0.45304	0.0136261
0.45312	0.01478074
0.4532	0.01550947
0.45328	0.01560857
0.45336	0.01502772
0.45344	0.01439014
0.45352	0.01402156
0.4536	0.01389765
0.45368	0.01442398
0.45376	0.01493768
0.45384	0.01517716
0.45392	0.01553559
0.454	0.01534186
0.45408	0.01507082
0.45416	0.014859
0.45424	0.0153352
0.45432	0.01548342
0.4544	0.01589621
0.45448	0.01647158
0.45456	0.01704217
0.45464	0.01773055
0.45472	0.01792444
0.4548	0.01754022
0.45488	0.0168303
0.45496	0.01619518
0.45504	0.01587426
0.45512	0.01584116
0.4552	0.01639789
0.45528	0.01689613
0.45536	0.01668054
0.45544	0.0161834
0.45552	0.01576238
0.4556	0.01577747
0.45568	0.01586726
0.45576	0.01611794
0.45584	0.01642002
0.45592	0.01612714
0.456	0.01653967
0.45608	0.01708403
0.45616	0.01692422
0.45624	0.01652076
0.45632	0.01657837
0.4564	0.01674366
0.45648	0.01602775
0.45656	0.01538716
0.45664	0.01482022
0.45672	0.01424619
0.4568	0.01369105
0.45688	0.01373863
0.45696	0.01391116
0.45704	0.01322636
0.45712	0.01298969
0.4572	0.01376072
0.45728	0.01385677
0.45736	0.01406421
0.45744	0.01413657
0.45752	0.01362514
0.4576	0.01285706
0.45768	0.0117857
0.45776	0.01138981
0.45784	0.01084671
0.45792	0.009737908
0.458	0.008943301
0.45808	0.008675111
0.45816	0.009096865
0.45824	0.01007951
0.45832	0.009823979
0.4584	0.009091515
0.45848	0.008336157
0.45856	0.008003362
0.45864	0.007597733
0.45872	0.006904248
0.4588	0.006190272
0.45888	0.005684504
0.45896	0.005126891
0.45904	0.004661943
0.45912	0.003985791
0.4592	0.00323621
0.45928	0.00295509
0.45936	0.002621999
0.45944	0.002090985
0.45952	0.002351974
0.4596	0.00237539
0.45968	0.002107428
0.45976	0.001810904
0.45984	0.0008641242
0.45992	0.0003777756
0.46	-0.0003417972
0.46008	-0.00072716
0.46016	-0.0009035859
0.46024	-0.001091682
0.46032	-0.001759496
0.4604	-0.002646162
0.46048	-0.003946214
0.46056	-0.004954628
0.46064	-0.005476703
0.46072	-0.005496855
0.4608	-0.005586225
0.46088	-0.005599919
0.46096	-0.005582899
0.46104	-0.006009154
0.46112	-0.006032262
0.4612	-0.005831297
0.46128	-0.005964835
0.46136	-0.006381675
0.46144	-0.006531262
0.46152	-0.006843201
0.4616	-0.007320032
0.46168	-0.007267596
0.46176	-0.00722539
0.46184	-0.007165511
0.46192	-0.00753071
0.462	-0.008054495
0.46208	-0.008118456
0.46216	-0.008375493
0.46224	-0.008552819
0.46232	-0.008973423
0.4624	-0.009229251
0.46248	-0.009646203
0.46256	-0.009651019
0.46264	-0.009826974
0.46272	-0.01016672
0.4628	-0.01020731
0.46288	-0.01038544
0.46296	-0.01106696
0.46304	-0.01096549
0.46312	-0.01069969
0.4632	-0.01099935
0.46328	-0.01120133
0.46336	-0.01177088
0.46344	-0.01185548
0.46352	-0.01123677
0.4636	-0.01131602
0.46368	-0.0115097
0.46376	-0.01171894
0.46384	-0.01208963
0.46392	-0.01182473
0.464	-0.01151544
0.46408	-0.01182615
0.46416	-0.01237833
0.46424	-0.01287349
0.46432	-0.01296896
0.4644	-0.01290065
0.46448	-0.0133408
0.46456	-0.01396937
0.46464	-0.01348741
0.46472	-0.01273156
0.4648	-0.01260882
0.46488	-0.01272964
0.46496	-0.0128838
0.46504	-0.01325615
0.46512	-0.01375922
0.4652	-0.01396425
0.46528	-0.01420455
0.46536	-0.01489819
0.46544	-0.01576502
0.46552	-0.01665203
0.4656	-0.01731568
0.46568	-0.01728698
0.46576	-0.01706718
0.46584	-0.01647304
0.46592	-0.0161281
0.466	-0.01516585
0.46608	-0.01498013
0.46616	-0.01544812
0.46624	-0.0153328
0.46632	-0.01475009
0.4664	-0.01375206
0.46648	-0.01306849
0.46656	-0.01297609
0.46664	-0.01278336
0.46672	-0.01242399
0.4668	-0.01167322
0.46688	-0.01059981
0.46696	-0.01093921
0.46704	-0.01171281
0.46712	-0.01202401
0.4672	-0.01216208
0.46728	-0.01220108
0.46736	-0.01139735
0.46744	-0.01028134
0.46752	-0.01011066
0.4676	-0.009932659
0.46768	-0.009054451
0.46776	-0.00768228
0.46784	-0.007396954
0.46792	-0.007670135
0.468	-0.008221433
0.46808	-0.008779949
0.46816	-0.00864568
0.46824	-0.008368921
0.46832	-0.007777584
0.4684	-0.007653027
0.46848	-0.007989012
0.46856	-0.007764128
0.46864	-0.007544092
0.46872	-0.007265027
0.4688	-0.007154706
0.46888	-0.00702608
0.46896	-0.006514092
0.46904	-0.006593483
0.46912	-0.006552795
0.4692	-0.005876847
0.46928	-0.004539671
0.46936	-0.00364171
0.46944	-0.003432331
0.46952	-0.00337548
0.4696	-0.002527295
0.46968	-0.001684477
0.46976	-0.001597178
0.46984	-0.001216569
0.46992	-0.0005309541
0.47	0.0005418303
0.47008	0.001412881
0.47016	0.001557139
0.47024	0.001736184
0.47032	0.001484953
0.4704	0.00103083
0.47048	0.002171083
0.47056	0.003027151
0.47064	0.003750691
0.47072	0.004746425
0.4708	0.004679049
0.47088	0.004781784
0.47096	0.005640084
0.47104	0.006062794
0.47112	0.00613105
0.4712	0.005861548
0.47128	0.005915204
0.47136	0.00625899
0.47144	0.00737464
0.47152	0.008697421
0.4716	0.009135863
0.47168	0.009585202
0.47176	0.01007669
0.47184	0.01023142
0.47192	0.01024422
0.472	0.01050756
0.47208	0.01011373
0.47216	0.01024175
0.47224	0.01032903
0.47232	0.01068126
0.4724	0.01141176
0.47248	0.01180113
0.47256	0.0118324
0.47264	0.01223106
0.47272	0.01311506
0.4728	0.01342221
0.47288	0.01352272
0.47296	0.01363354
0.47304	0.01387579
0.47312	0.01428103
0.4732	0.01473702
0.47328	0.01512391
0.47336	0.01559695
0.47344	0.01494325
0.47352	0.01445548
0.4736	0.01439013
0.47368	0.01460704
0.47376	0.01525968
0.47384	0.01550834
0.47392	0.01593759
0.474	0.01661667
0.47408	0.01621626
0.47416	0.01560824
0.47424	0.01524536
0.47432	0.01406117
0.4744	0.01297772
0.47448	0.01261457
0.47456	0.01314895
0.47464	0.01454061
0.47472	0.01520113
0.4748	0.01551861
0.47488	0.01570634
0.47496	0.01545108
0.47504	0.01491869
0.47512	0.0144715
0.4752	0.01483316
0.47528	0.01501457
0.47536	0.01481283
0.47544	0.01444165
0.47552	0.01384011
0.4756	0.01325068
0.47568	0.01374192
0.47576	0.01422312
0.47584	0.01463434
0.47592	0.01434973
0.476	0.01381617
0.47608	0.01323763
0.47616	0.0125908
0.47624	0.01198568
0.47632	0.01160378
0.4764	0.01221347
0.47648	0.01186119
0.47656	0.01136272
0.47664	0.0110658
0.47672	0.01062857
0.4768	0.009868936
0.47688	0.008705501
0.47696	0.008155698
0.47704	0.007885038
0.47712	0.00771761
0.4772	0.007460632
0.47728	0.00722777
0.47736	0.007447305
0.47744	0.007292226
0.47752	0.006806587
0.4776	0.006398601
0.47768	0.00620689
0.47776	0.00587034
0.47784	0.00555221
0.47792	0.005679494
0.478	0.005585588
0.47808	0.005930118
0.47816	0.005877737
0.47824	0.005396005
0.47832	0.005673357
0.4784	0.005834203
0.47848	0.005416601
0.47856	0.004293365
0.47864	0.003091687
0.47872	0.00200663
0.4788	0.001046044
0.47888	-0.0005640661
0.47896	-0.00187381
0.47904	-0.002931352
0.47912	-0.003967928
0.4792	-0.004625096
0.47928	-0.004292063
0.47936	-0.004259962
0.47944	-0.004270809
0.47952	-0.004569802
0.4796	-0.004665244
0.47968	-0.005470396
0.47976	-0.006275434
0.47984	-0.006851939
0.47992	-0.00799872
0.48	-0.008307254
0.48008	-0.008591858
0.48016	-0.009204666
0.48024	-0.00952393
0.48032	-0.009629599
0.4804	-0.009645556
0.48048	-0.009771787
0.48056	-0.010094
0.48064	-0.01043379
0.48072	-0.01110258
0.4808	-0.0106973
0.48088	-0.01072018
0.48096	-0.01117999
0.48104	-0.01176156
0.48112	-0.01185674
0.4812	-0.01209952
0.48128	-0.01220178
0.48136	-0.01176714
0.48144	-0.01144825
0.48152	-0.01126624
0.4816	-0.01145578
0.48168	-0.01201039
0.48176	-0.01249097
0.48184	-0.01208063
0.48192	-0.01159104
0.482	-0.0113752
0.48208	-0.01144598
0.48216	-0.01141788
0.48224	-0.01131199
0.48232	-0.01181343
0.4824	-0.01196072
0.48248	-0.01173437
0.48256	-0.01167632
0.48264	-0.0110733
0.48272	-0.01069897
0.4828	-0.0106422
0.48288	-0.01001038
0.48296	-0.009785451
0.48304	-0.01044207
0.48312	-0.01097615
0.4832	-0.01170091
0.48328	-0.01217877
0.48336	-0.01211442
0.48344	-0.01246681
0.48352	-0.0131378
0.4836	-0.01323029
0.48368	-0.0124904
0.48376	-0.01258849
0.48384	-0.013148
0.48392	-0.01390903
0.484	-0.01438559
0.48408	-0.01439543
0.48416	-0.01472456
0.48424	-0.01512255
0.48432	-0.01503346
0.4844	-0.01509723
0.48448	-0.01503148
0.48456	-0.01432511
0.48464	-0.01395612
0.48472	-0.01356483
0.4848	-0.01306071
0.48488	-0.01265601
0.48496	-0.0124612
0.48504	-0.01262464
0.48512	-0.01292551
0.4852	-0.01374942
0.48528	-0.01439341
0.48536	-0.01513718
0.48544	-0.0150455
0.48552	-0.01487597
0.4856	-0.01496279
0.48568	-0.01471539
0.48576	-0.01468358
0.48584	-0.01504979
0.48592	-0.01525779
0.486	-0.01517845
0.48608	-0.015194
