Source File Name:	Scan
Signal:	Time - Ref1 Voltage - Samples

Time	Time Signal
[ s ]	[ V ]
0	-0.0125364
8e-5	-0.01159188
0.00016	-0.01026469
0.00024	-0.009740044
0.00032	-0.009627967
0.0004	-0.009696268
0.00048	-0.01056173
0.00056	-0.01114919
0.00064	-0.0110695
0.00072	-0.01053125
0.0008	-0.0101334
0.00088	-0.009943556
0.00096	-0.01019091
0.00104	-0.009880066
0.00112	-0.009541942
0.0012	-0.009200018
0.00128	-0.009110665
0.00136	-0.009326641
0.00144	-0.00957569
0.00152	-0.009293922
0.0016	-0.008527108
0.00168	-0.008380524
0.00176	-0.00840421
0.00184	-0.00844577
0.00192	-0.008827558
0.002	-0.009324874
0.00208	-0.009142739
0.00216	-0.009170612
0.00224	-0.009732717
0.00232	-0.01031352
0.0024	-0.01043978
0.00248	-0.01031916
0.00256	-0.01057488
0.00264	-0.01140737
0.00272	-0.01205541
0.0028	-0.01182463
0.00288	-0.01145575
0.00296	-0.01063204
0.00304	-0.01080093
0.00312	-0.01099977
0.0032	-0.01119274
0.00328	-0.01129836
0.00336	-0.0113765
0.00344	-0.01122883
0.00352	-0.01142125
0.0036	-0.01166172
0.00368	-0.0112374
0.00376	-0.01100868
0.00384	-0.01085503
0.00392	-0.01112145
0.004	-0.01105925
0.00408	-0.01100066
0.00416	-0.01100916
0.00424	-0.01050685
0.00432	-0.009443773
0.0044	-0.008405427
0.00448	-0.008048342
0.00456	-0.007867791
0.00464	-0.007723099
0.00472	-0.007589454
0.0048	-0.007887368
0.00488	-0.008089768
0.00496	-0.008405511
0.00504	-0.008446056
0.00512	-0.008024607
0.0052	-0.007611252
0.00528	-0.0070118
0.00536	-0.006595384
0.00544	-0.006810183
0.00552	-0.007416889
0.0056	-0.00742992
0.00568	-0.007814062
0.00576	-0.008650732
0.00584	-0.008917055
0.00592	-0.008352929
0.006	-0.0073743
0.00608	-0.006555786
0.00616	-0.005774544
0.00624	-0.005771246
0.00632	-0.006054372
0.0064	-0.006617871
0.00648	-0.006720094
0.00656	-0.006549941
0.00664	-0.006415713
0.00672	-0.005754882
0.0068	-0.004608219
0.00688	-0.004000606
0.00696	-0.003590557
0.00704	-0.002974764
0.00712	-0.002501299
0.0072	-0.002721679
0.00728	-0.00295065
0.00736	-0.002176531
0.00744	-0.00169008
0.00752	-0.001657998
0.0076	-0.001785539
0.00768	-0.001485859
0.00776	-0.0005523621
0.00784	-0.0001856185
0.00792	-4.991337e-5
0.008	-4.387099e-6
0.00808	0.0005704361
0.00816	0.001961065
0.00824	0.002901042
0.00832	0.003551134
0.0084	0.003410239
0.00848	0.003024422
0.00856	0.003522485
0.00864	0.003650434
0.00872	0.00394195
0.0088	0.00495001
0.00888	0.005447941
0.00896	0.005979911
0.00904	0.006107129
0.00912	0.006018732
0.0092	0.006261038
0.00928	0.006697363
0.00936	0.006961512
0.00944	0.007352983
0.00952	0.007343109
0.0096	0.007410198
0.00968	0.007711546
0.00976	0.008764665
0.00984	0.009385645
0.00992	0.01013495
0.01	0.01088663
0.01008	0.01117281
0.01016	0.01075089
0.01024	0.01009475
0.01032	0.01002527
0.0104	0.0098233
0.01048	0.01010655
0.01056	0.01056745
0.01064	0.01143946
0.01072	0.01236532
0.0108	0.01319518
0.01088	0.013874
0.01096	0.01413752
0.01104	0.01443154
0.01112	0.01468468
0.0112	0.01474307
0.01128	0.01537063
0.01136	0.0162763
0.01144	0.01623952
0.01152	0.01569007
0.0116	0.01467458
0.01168	0.01353685
0.01176	0.01354988
0.01184	0.01433413
0.01192	0.01430046
0.012	0.01484886
0.01208	0.01541311
0.01216	0.0161343
0.01224	0.0168809
0.01232	0.01694017
0.0124	0.01638905
0.01248	0.01590446
0.01256	0.01572672
0.01264	0.01560109
0.01272	0.01532618
0.0128	0.0150711
0.01288	0.01536466
0.01296	0.01558216
0.01304	0.01537654
0.01312	0.0155358
0.0132	0.01609741
0.01328	0.01604049
0.01336	0.01564822
0.01344	0.01462268
0.01352	0.01386048
0.0136	0.01310206
0.01368	0.01291057
0.01376	0.0127035
0.01384	0.01312355
0.01392	0.01334419
0.014	0.01302547
0.01408	0.01287361
0.01416	0.01284456
0.01424	0.0124542
0.01432	0.01157538
0.0144	0.01099548
0.01448	0.01031292
0.01456	0.009356928
0.01464	0.008746631
0.01472	0.008916896
0.0148	0.009148142
0.01488	0.009193742
0.01496	0.008925059
0.01504	0.008110066
0.01512	0.007842273
0.0152	0.007857246
0.01528	0.007299041
0.01536	0.007287667
0.01544	0.006895431
0.01552	0.006925146
0.0156	0.006580709
0.01568	0.005951835
0.01576	0.005373962
0.01584	0.005453209
0.01592	0.005587835
0.016	0.005782844
0.01608	0.006402242
0.01616	0.006426872
0.01624	0.006343322
0.01632	0.006224679
0.0164	0.005976466
0.01648	0.005761322
0.01656	0.005797787
0.01664	0.005950663
0.01672	0.006183455
0.0168	0.005730298
0.01688	0.005010788
0.01696	0.004612939
0.01704	0.004156298
0.01712	0.004036295
0.0172	0.004417918
0.01728	0.004031758
0.01736	0.00362745
0.01744	0.003154481
0.01752	0.002704804
0.0176	0.002303176
0.01768	0.001921832
0.01776	0.001599639
0.01784	0.000826779
0.01792	0.0001379162
0.018	-0.0004266989
0.01808	-0.00119619
0.01816	-0.001963268
0.01824	-0.002361086
0.01832	-0.003259768
0.0184	-0.003753475
0.01848	-0.003769776
0.01856	-0.003558421
0.01864	-0.003866575
0.01872	-0.004696421
0.0188	-0.005228892
0.01888	-0.006014262
0.01896	-0.006509634
0.01904	-0.006792001
0.01912	-0.007396209
0.0192	-0.007533673
0.01928	-0.007486
0.01936	-0.007632009
0.01944	-0.008261313
0.01952	-0.008826984
0.0196	-0.009923681
0.01968	-0.01099056
0.01976	-0.01173204
0.01984	-0.01216366
0.01992	-0.01231299
0.02	-0.01271501
0.02008	-0.01258206
0.02016	-0.01215199
0.02024	-0.01180137
0.02032	-0.0121271
0.0204	-0.01308336
0.02048	-0.01359868
0.02056	-0.01395249
0.02064	-0.0145443
0.02072	-0.01534641
0.0208	-0.01543138
0.02088	-0.0153559
0.02096	-0.0152764
0.02104	-0.01577171
0.02112	-0.01585658
0.0212	-0.01585924
0.02128	-0.01671354
0.02136	-0.01682545
0.02144	-0.01663949
0.02152	-0.0166456
0.0216	-0.01619175
0.02168	-0.01591034
0.02176	-0.01566323
0.02184	-0.01579903
0.02192	-0.01575729
0.022	-0.01622097
0.02208	-0.01661925
0.02216	-0.01608232
0.02224	-0.01615717
0.02232	-0.01591719
0.0224	-0.01564883
0.02248	-0.01517891
0.02256	-0.01560225
0.02264	-0.01619886
0.02272	-0.01637287
0.0228	-0.01689716
0.02288	-0.01639117
0.02296	-0.01628879
0.02304	-0.0167131
0.02312	-0.01678182
0.0232	-0.01603644
0.02328	-0.01499285
0.02336	-0.01460721
0.02344	-0.01384976
0.02352	-0.01316525
0.0236	-0.01319683
0.02368	-0.01363324
0.02376	-0.01324547
0.02384	-0.01268403
0.02392	-0.01318253
0.024	-0.0138202
0.02408	-0.0147942
0.02416	-0.01507576
0.02424	-0.0143362
0.02432	-0.01332285
0.0244	-0.01268555
0.02448	-0.01213338
0.02456	-0.01146173
0.02464	-0.01143424
0.02472	-0.01130945
0.0248	-0.0111831
0.02488	-0.01140113
0.02496	-0.01209569
0.02504	-0.01281252
0.02512	-0.01248933
0.0252	-0.01146707
0.02528	-0.01049962
0.02536	-0.0100238
0.02544	-0.009765126
0.02552	-0.009897714
0.0256	-0.009046713
0.02568	-0.007826124
0.02576	-0.006393628
0.02584	-0.005004919
0.02592	-0.004418665
0.026	-0.004088056
0.02608	-0.003892403
0.02616	-0.00410173
0.02624	-0.004287242
0.02632	-0.004684858
0.0264	-0.004176947
0.02648	-0.003543607
0.02656	-0.002703442
0.02664	-0.001915126
0.02672	-0.001876027
0.0268	-0.002066855
0.02688	-0.001720628
0.02696	-0.001173021
0.02704	-0.000809037
0.02712	0.0002263251
0.0272	0.0007804653
0.02728	0.0005655376
0.02736	0.0008217314
0.02744	0.001269272
0.02752	0.001900169
0.0276	0.002060889
0.02768	0.001844899
0.02776	0.001995743
0.02784	0.00247308
0.02792	0.003032863
0.028	0.003219564
0.02808	0.003215815
0.02816	0.002771988
0.02824	0.002733131
0.02832	0.003578358
0.0284	0.003992475
0.02848	0.004372754
0.02856	0.004857409
0.02864	0.004652162
0.02872	0.004804102
0.0288	0.005055754
0.02888	0.005398628
0.02896	0.005361103
0.02904	0.005973161
0.02912	0.006490152
0.0292	0.006912919
0.02928	0.007920358
0.02936	0.009080338
0.02944	0.01034106
0.02952	0.01114195
0.0296	0.01154262
0.02968	0.01179764
0.02976	0.01144003
0.02984	0.01126381
0.02992	0.01112452
0.03	0.01092047
0.03008	0.01075621
0.03016	0.01076248
0.03024	0.01109823
0.03032	0.01106826
0.0304	0.01098378
0.03048	0.01085222
0.03056	0.01120724
0.03064	0.01145284
0.03072	0.01109537
0.0308	0.01036494
0.03088	0.009847879
0.03096	0.01023867
0.03104	0.01123919
0.03112	0.01157359
0.0312	0.0115586
0.03128	0.01175985
0.03136	0.01209859
0.03144	0.01257064
0.03152	0.01244846
0.0316	0.01225662
0.03168	0.0124565
0.03176	0.01315704
0.03184	0.01339346
0.03192	0.01322726
0.032	0.01433565
0.03208	0.01512749
0.03216	0.0156384
0.03224	0.01598412
0.03232	0.01630618
0.0324	0.01735379
0.03248	0.01738578
0.03256	0.01682996
0.03264	0.01580245
0.03272	0.01538661
0.0328	0.01554097
0.03288	0.01527
0.03296	0.01487137
0.03304	0.01449955
0.03312	0.01486393
0.0332	0.01523681
0.03328	0.01550932
0.03336	0.01503565
0.03344	0.01442275
0.03352	0.01347252
0.0336	0.01276673
0.03368	0.01260889
0.03376	0.0121064
0.03384	0.01209027
0.03392	0.01267214
0.034	0.01306324
0.03408	0.01306509
0.03416	0.01276927
0.03424	0.01249812
0.03432	0.01267127
0.0344	0.01317518
0.03448	0.01371104
0.03456	0.01470344
0.03464	0.01517252
0.03472	0.01545451
0.0348	0.015989
0.03488	0.01629444
0.03496	0.01620833
0.03504	0.01589545
0.03512	0.01644448
0.0352	0.01599116
0.03528	0.01486561
0.03536	0.01390018
0.03544	0.01220709
0.03552	0.01088645
0.0356	0.009458442
0.03568	0.007669833
0.03576	0.006647792
0.03584	0.006223619
0.03592	0.005503065
0.036	0.004129941
0.03608	0.003616872
0.03616	0.003273417
0.03624	0.002790834
0.03632	0.002715474
0.0364	0.002969997
0.03648	0.003114807
0.03656	0.002783323
0.03664	0.002047722
0.03672	0.001645542
0.0368	0.001545204
0.03688	0.0008963379
0.03696	-2.66561e-5
0.03704	-0.00112834
0.03712	-0.002206124
0.0372	-0.002587922
0.03728	-0.003212353
0.03736	-0.003902157
0.03744	-0.004455354
0.03752	-0.004811301
0.0376	-0.00531176
0.03768	-0.006222907
0.03776	-0.006767499
0.03784	-0.006826825
0.03792	-0.00717978
0.038	-0.007297231
0.03808	-0.007730083
0.03816	-0.00870058
0.03824	-0.009335469
0.03832	-0.009659783
0.0384	-0.01059494
0.03848	-0.01093847
0.03856	-0.01053599
0.03864	-0.01017038
0.03872	-0.01011949
0.0388	-0.01037944
0.03888	-0.01074135
0.03896	-0.01086396
0.03904	-0.0113644
0.03912	-0.01171736
0.0392	-0.01259331
0.03928	-0.01313107
0.03936	-0.01322629
0.03944	-0.01343199
0.03952	-0.01318303
0.0396	-0.01309676
0.03968	-0.01248333
0.03976	-0.01183792
0.03984	-0.01128758
0.03992	-0.01146275
0.04	-0.01146259
0.04008	-0.0118857
0.04016	-0.01175076
0.04024	-0.01139419
0.04032	-0.01132624
0.0404	-0.01155762
0.04048	-0.01174494
0.04056	-0.01179597
0.04064	-0.01230227
0.04072	-0.01286624
0.0408	-0.01354522
0.04088	-0.01426668
0.04096	-0.01437121
0.04104	-0.01408614
0.04112	-0.01462062
0.0412	-0.01518547
0.04128	-0.01494187
0.04136	-0.01411187
0.04144	-0.01291011
0.04152	-0.01218369
0.0416	-0.01212252
0.04168	-0.01194407
0.04176	-0.01226973
0.04184	-0.01318363
0.04192	-0.01343709
0.042	-0.01415569
0.04208	-0.01392978
0.04216	-0.01387323
0.04224	-0.01491937
0.04232	-0.01540959
0.0424	-0.01569109
0.04248	-0.01617933
0.04256	-0.01624629
0.04264	-0.01603676
0.04272	-0.01616052
0.0428	-0.01606801
0.04288	-0.01630359
0.04296	-0.0167411
0.04304	-0.01631266
0.04312	-0.01593701
0.0432	-0.01558673
0.04328	-0.01523786
0.04336	-0.01529034
0.04344	-0.01547559
0.04352	-0.01567921
0.0436	-0.01558592
0.04368	-0.01502006
0.04376	-0.01407534
0.04384	-0.01297358
0.04392	-0.01189724
0.044	-0.01122072
0.04408	-0.0107888
0.04416	-0.0105603
0.04424	-0.0104179
0.04432	-0.0102097
0.0444	-0.009702732
0.04448	-0.008799352
0.04456	-0.008435182
0.04464	-0.008420758
0.04472	-0.00835126
0.0448	-0.007994067
0.04488	-0.008245622
0.04496	-0.008020301
0.04504	-0.007871527
0.04512	-0.007837666
0.0452	-0.007457032
0.04528	-0.007055291
0.04536	-0.006988124
0.04544	-0.007024417
0.04552	-0.006676502
0.0456	-0.005813687
0.04568	-0.004768685
0.04576	-0.004496353
0.04584	-0.004713962
0.04592	-0.004520087
0.046	-0.004289237
0.04608	-0.004493141
0.04616	-0.004336003
0.04624	-0.004012236
0.04632	-0.004229577
0.0464	-0.003697688
0.04648	-0.003363228
0.04656	-0.00317141
0.04664	-0.002962939
0.04672	-0.002832949
0.0468	-0.002842394
0.04688	-0.003092953
0.04696	-0.002900943
0.04704	-0.001979103
0.04712	-0.001676639
0.0472	-0.001942741
0.04728	-0.001730829
0.04736	-0.001415427
0.04744	-0.001106235
0.04752	-0.0007911006
0.0476	-0.0003408092
0.04768	-2.788587e-5
0.04776	0.0002891463
0.04784	0.0007884765
0.04792	0.000640769
0.048	0.0008218395
0.04808	0.001549219
0.04816	0.002549204
0.04824	0.003251929
0.04832	0.003387591
0.0484	0.004083407
0.04848	0.005142511
0.04856	0.005862737
0.04864	0.005561794
0.04872	0.005393062
0.0488	0.005357117
0.04888	0.006143534
0.04896	0.006946344
0.04904	0.007403888
0.04912	0.00864793
0.0492	0.009438873
0.04928	0.01002715
0.04936	0.01023685
0.04944	0.01086363
0.04952	0.01133933
0.0496	0.01135278
0.04968	0.01091906
0.04976	0.01068921
0.04984	0.011085
0.04992	0.01145767
0.05	0.01143084
0.05008	0.01156496
0.05016	0.01226432
0.05024	0.01308111
0.05032	0.01401785
0.0504	0.01476865
0.05048	0.0151358
0.05056	0.01523177
0.05064	0.01519468
0.05072	0.01521292
0.0508	0.01488044
0.05088	0.0155971
0.05096	0.01699264
0.05104	0.01805389
0.05112	0.01865057
0.0512	0.01841053
0.05128	0.01820015
0.05136	0.01806274
0.05144	0.01828554
0.05152	0.01805796
0.0516	0.01747072
0.05168	0.01657417
0.05176	0.01602236
0.05184	0.01586615
0.05192	0.01543749
0.052	0.01569483
0.05208	0.01547674
0.05216	0.01561131
0.05224	0.01517771
0.05232	0.01481166
0.0524	0.0146645
0.05248	0.01443615
0.05256	0.01441335
0.05264	0.01389075
0.05272	0.01331558
0.0528	0.01283063
0.05288	0.01296983
0.05296	0.01355366
0.05304	0.01313101
0.05312	0.01267456
0.0532	0.01294914
0.05328	0.01368803
0.05336	0.01457138
0.05344	0.01455167
0.05352	0.01354576
0.0536	0.01283003
0.05368	0.0123151
0.05376	0.01172559
0.05384	0.01180117
0.05392	0.01195629
0.054	0.01194056
0.05408	0.01165259
0.05416	0.0120485
0.05424	0.01301544
0.05432	0.01280573
0.0544	0.01205737
0.05448	0.01115382
0.05456	0.01084341
0.05464	0.01091749
0.05472	0.01049352
0.0548	0.01009509
0.05488	0.009817157
0.05496	0.00996858
0.05504	0.00996203
0.05512	0.00960564
0.0552	0.009386279
0.05528	0.009514966
0.05536	0.009493369
0.05544	0.008864957
0.05552	0.008320598
0.0556	0.007927803
0.05568	0.007278562
0.05576	0.006649336
0.05584	0.006399887
0.05592	0.006996932
0.056	0.006678553
0.05608	0.006464114
0.05616	0.005224275
0.05624	0.004211477
0.05632	0.003689749
0.0564	0.003124935
0.05648	0.002950977
0.05656	0.002380123
0.05664	0.002243699
0.05672	0.002456204
0.0568	0.002592519
0.05688	0.002944763
0.05696	0.003548167
0.05704	0.00424312
0.05712	0.004282886
0.0572	0.004421118
0.05728	0.004313364
0.05736	0.003947154
0.05744	0.003360372
0.05752	0.002975896
0.0576	0.003240899
0.05768	0.003147098
0.05776	0.003348918
0.05784	0.003545759
0.05792	0.002530677
0.058	0.001460411
0.05808	0.001193014
0.05816	0.0008870617
0.05824	0.0004424463
0.05832	0.0005071568
0.0584	0.0007174194
0.05848	0.0005097699
0.05856	-0.0003674339
0.05864	-0.001157626
0.05872	-0.001828786
0.0588	-0.002637032
0.05888	-0.003413739
0.05896	-0.004018651
0.05904	-0.004899879
0.05912	-0.005776576
0.0592	-0.006272216
0.05928	-0.006566021
0.05936	-0.006663774
0.05944	-0.006794538
0.05952	-0.007190089
0.0596	-0.008424804
0.05968	-0.009100072
0.05976	-0.009741026
0.05984	-0.01062069
0.05992	-0.01115844
0.06	-0.01202129
0.06008	-0.01292246
0.06016	-0.013093
0.06024	-0.0128384
0.06032	-0.01223558
0.0604	-0.01280038
0.06048	-0.01422589
0.06056	-0.01495526
0.06064	-0.01476224
0.06072	-0.01441472
0.0608	-0.01450094
0.06088	-0.01527325
0.06096	-0.01562212
0.06104	-0.01559867
0.06112	-0.0158789
0.0612	-0.01609831
0.06128	-0.01596891
0.06136	-0.01601976
0.06144	-0.01655223
0.06152	-0.0169737
0.0616	-0.0172208
0.06168	-0.01780633
0.06176	-0.01776943
0.06184	-0.01681561
0.06192	-0.01620717
0.062	-0.01563126
0.06208	-0.01493082
0.06216	-0.01439654
0.06224	-0.0147035
0.06232	-0.01496949
0.0624	-0.01505871
0.06248	-0.0150962
0.06256	-0.01584661
0.06264	-0.01676212
0.06272	-0.01716548
0.0628	-0.0170211
0.06288	-0.01655836
0.06296	-0.01542566
0.06304	-0.01498605
0.06312	-0.01452511
0.0632	-0.01429024
0.06328	-0.01390002
0.06336	-0.01285747
0.06344	-0.01228207
0.06352	-0.01219418
0.0636	-0.01220125
0.06368	-0.01251331
0.06376	-0.01300086
0.06384	-0.01308199
0.06392	-0.01306209
0.064	-0.0132511
0.06408	-0.01303098
0.06416	-0.01264201
0.06424	-0.01302482
0.06432	-0.01254804
0.0644	-0.01210721
0.06448	-0.01226037
0.06456	-0.0123173
0.06464	-0.01192939
0.06472	-0.01143328
0.0648	-0.01098056
0.06488	-0.01064353
0.06496	-0.01030944
0.06504	-0.01010584
0.06512	-0.009968695
0.0652	-0.009614871
0.06528	-0.01012866
0.06536	-0.01027683
0.06544	-0.009544123
0.06552	-0.008410707
0.0656	-0.008137722
0.06568	-0.007950382
0.06576	-0.0075422
0.06584	-0.007822523
0.06592	-0.008084022
0.066	-0.00835425
0.06608	-0.007885517
0.06616	-0.006812873
0.06624	-0.006638564
0.06632	-0.006609423
0.0664	-0.005943377
0.06648	-0.005687071
0.06656	-0.00591385
0.06664	-0.006202048
0.06672	-0.005849795
0.0668	-0.005128072
0.06688	-0.004269392
0.06696	-0.003627354
0.06704	-0.003409053
0.06712	-0.003173795
0.0672	-0.002137922
0.06728	-0.001167974
0.06736	-0.0003785563
0.06744	-1.450587e-5
0.06752	0.0005153663
0.0676	0.000795298
0.06768	0.001111434
0.06776	0.00127791
0.06784	0.001870771
0.06792	0.002382506
0.068	0.002074495
0.06808	0.002053501
0.06816	0.00186235
0.06824	0.001730092
0.06832	0.001956741
0.0684	0.002108913
0.06848	0.001844776
0.06856	0.002451601
0.06864	0.003098658
0.06872	0.003459127
0.0688	0.004142478
0.06888	0.004218407
0.06896	0.004180207
0.06904	0.004237624
0.06912	0.004649028
0.0692	0.005018014
0.06928	0.005666079
0.06936	0.006372549
0.06944	0.007243019
0.06952	0.008222593
0.0696	0.009183424
0.06968	0.009843858
0.06976	0.009999839
0.06984	0.01030888
0.06992	0.01089157
0.07	0.01096492
0.07008	0.01137122
0.07016	0.01204508
0.07024	0.01226653
0.07032	0.01260818
0.0704	0.01325484
0.07048	0.01316378
0.07056	0.01230985
0.07064	0.01178383
0.07072	0.01176731
0.0708	0.01155276
0.07088	0.01123728
0.07096	0.01128756
0.07104	0.01128016
0.07112	0.0109781
0.0712	0.01102911
0.07128	0.01169528
0.07136	0.01277833
0.07144	0.01332515
0.07152	0.01303443
0.0716	0.01281674
0.07168	0.01325914
0.07176	0.01326479
0.07184	0.01303793
0.07192	0.01320189
0.072	0.01330159
0.07208	0.01340535
0.07216	0.01342906
0.07224	0.01341398
0.07232	0.01340345
0.0724	0.01395429
0.07248	0.01386911
0.07256	0.01396088
0.07264	0.01436652
0.07272	0.0142462
0.0728	0.01428703
0.07288	0.01456035
0.07296	0.01491912
0.07304	0.01434473
0.07312	0.01409125
0.0732	0.01429364
0.07328	0.01540796
0.07336	0.01600067
0.07344	0.01583454
0.07352	0.01595319
0.0736	0.01622448
0.07368	0.01659166
0.07376	0.01703022
0.07384	0.01727618
0.07392	0.017205
0.074	0.01741216
0.07408	0.01773841
0.07416	0.01809131
0.07424	0.01841184
0.07432	0.01889638
0.0744	0.01862197
0.07448	0.01795915
0.07456	0.01761823
0.07464	0.01799378
0.07472	0.01806812
0.0748	0.01715037
0.07488	0.0162492
0.07496	0.01513339
0.07504	0.01424614
0.07512	0.0131878
0.0752	0.01262425
0.07528	0.01231547
0.07536	0.01250851
0.07544	0.01260812
0.07552	0.01220363
0.0756	0.01183991
0.07568	0.01109633
0.07576	0.01018205
0.07584	0.008592868
0.07592	0.007266007
0.076	0.005896762
0.07608	0.003780688
0.07616	0.002128263
0.07624	0.002222055
0.07632	0.002181753
0.0764	0.002602407
0.07648	0.002981656
0.07656	0.003878225
0.07664	0.003540915
0.07672	0.002846857
0.0768	0.002182916
0.07688	0.001872419
0.07696	0.001690459
0.07704	0.001371576
0.07712	0.001594161
0.0772	0.001828516
0.07728	0.002444549
0.07736	0.003507281
0.07744	0.003156516
0.07752	0.002318877
0.0776	0.001906035
0.07768	0.0009504824
0.07776	0.0001172518
0.07784	-0.000594526
0.07792	-0.000628504
0.078	-0.0006030152
0.07808	-0.0006523496
0.07816	-0.001474963
0.07824	-0.002010157
0.07832	-0.002725457
0.0784	-0.003798664
0.07848	-0.004552395
0.07856	-0.004635494
0.07864	-0.004667455
0.07872	-0.004763545
0.0788	-0.004862566
0.07888	-0.005792616
0.07896	-0.006309132
0.07904	-0.007045628
0.07912	-0.007431497
0.0792	-0.007607372
0.07928	-0.008020924
0.07936	-0.008571752
0.07944	-0.009342584
0.07952	-0.009348723
0.0796	-0.009623512
0.07968	-0.01032619
0.07976	-0.01065003
0.07984	-0.0111774
0.07992	-0.01171403
0.08	-0.01230609
0.08008	-0.01287017
0.08016	-0.01357112
0.08024	-0.01448086
0.08032	-0.01515242
0.0804	-0.01591364
0.08048	-0.01626614
0.08056	-0.01658448
0.08064	-0.01781127
0.08072	-0.01849522
0.0808	-0.01855842
0.08088	-0.01798065
0.08096	-0.01824232
0.08104	-0.01867373
0.08112	-0.01819924
0.0812	-0.0182143
0.08128	-0.01829225
0.08136	-0.01821177
0.08144	-0.01749295
0.08152	-0.01802041
0.0816	-0.01840346
0.08168	-0.01831436
0.08176	-0.01858442
0.08184	-0.01890736
0.08192	-0.01822289
0.082	-0.01775253
0.08208	-0.01814562
0.08216	-0.018524
0.08224	-0.01913955
0.08232	-0.01927152
0.0824	-0.0183668
0.08248	-0.01692384
0.08256	-0.01606812
0.08264	-0.01602106
0.08272	-0.01630233
0.0828	-0.0167431
0.08288	-0.0170303
0.08296	-0.01684399
0.08304	-0.01604189
0.08312	-0.01504947
0.0832	-0.0151642
0.08328	-0.01577583
0.08336	-0.01557981
0.08344	-0.01499784
0.08352	-0.01511238
0.0836	-0.01482351
0.08368	-0.0143845
0.08376	-0.01473854
0.08384	-0.01500694
0.08392	-0.01576751
0.084	-0.01540746
0.08408	-0.01517501
0.08416	-0.01483209
0.08424	-0.0143471
0.08432	-0.01491415
0.0844	-0.01485332
0.08448	-0.01402619
0.08456	-0.01332395
0.08464	-0.01218636
0.08472	-0.01068669
0.0848	-0.00940072
0.08488	-0.008403712
0.08496	-0.007802382
0.08504	-0.007262149
0.08512	-0.006115744
0.0852	-0.005237398
0.08528	-0.004624601
0.08536	-0.003524198
0.08544	-0.00332063
0.08552	-0.002960805
0.0856	-0.002436041
0.08568	-0.001523595
0.08576	-0.0008744473
0.08584	-0.0004672399
0.08592	-0.0002336566
0.086	-0.0001889088
0.08608	0.0004448468
0.08616	0.001319208
0.08624	0.001992723
0.08632	0.002443141
0.0864	0.002946901
0.08648	0.003561833
0.08656	0.003231793
0.08664	0.00306405
0.08672	0.00272955
0.0868	0.002488038
0.08688	0.002672181
0.08696	0.003385897
0.08704	0.003949341
0.08712	0.003551002
0.0872	0.003471579
0.08728	0.003303387
0.08736	0.003161449
0.08744	0.003029628
0.08752	0.003210992
0.0876	0.003417515
0.08768	0.003252751
0.08776	0.004283939
0.08784	0.005381757
0.08792	0.005622414
0.088	0.005712911
0.08808	0.005696048
0.08816	0.006155657
0.08824	0.006771589
0.08832	0.007253187
0.0884	0.007789635
0.08848	0.008365192
0.08856	0.008860618
0.08864	0.009108639
0.08872	0.009554027
0.0888	0.009976576
0.08888	0.01056436
0.08896	0.01098236
0.08904	0.01148825
0.08912	0.01212395
0.0892	0.01242029
0.08928	0.01275405
0.08936	0.01253906
0.08944	0.01305061
0.08952	0.01423128
0.0896	0.0140294
0.08968	0.01397451
0.08976	0.01472205
0.08984	0.0151169
0.08992	0.01498493
0.09	0.01537345
0.09008	0.01575219
0.09016	0.01606161
0.09024	0.01616503
0.09032	0.01593075
0.0904	0.01614073
0.09048	0.01628482
0.09056	0.01642832
0.09064	0.0167395
0.09072	0.01718597
0.0908	0.01672846
0.09088	0.01636154
0.09096	0.01628826
0.09104	0.01622387
0.09112	0.01593974
0.0912	0.01565561
0.09128	0.01528352
0.09136	0.01444991
0.09144	0.01429433
0.09152	0.01489914
0.0916	0.01539777
0.09168	0.01598183
0.09176	0.01633849
0.09184	0.01635448
0.09192	0.01559251
0.092	0.01491246
0.09208	0.01462777
0.09216	0.01418786
0.09224	0.01414453
0.09232	0.0140895
0.0924	0.01389738
0.09248	0.01375041
0.09256	0.01435924
0.09264	0.01436249
0.09272	0.01449197
0.0928	0.01424264
0.09288	0.0140367
0.09296	0.0142788
0.09304	0.01458809
0.09312	0.01493355
0.0932	0.01480565
0.09328	0.0149176
0.09336	0.01521863
0.09344	0.01559392
0.09352	0.01533449
0.0936	0.0154922
0.09368	0.01614754
0.09376	0.01659224
0.09384	0.01709471
0.09392	0.0171418
0.094	0.01690736
0.09408	0.01675356
0.09416	0.01711932
0.09424	0.01666442
0.09432	0.01558948
0.0944	0.01506077
0.09448	0.01466391
0.09456	0.01408597
0.09464	0.01374115
0.09472	0.01399648
0.0948	0.01369193
0.09488	0.0131393
0.09496	0.01337071
0.09504	0.01326094
0.09512	0.01179454
0.0952	0.01088069
0.09528	0.01099183
0.09536	0.01139696
0.09544	0.01154397
0.09552	0.01146844
0.0956	0.01074215
0.09568	0.01014524
0.09576	0.01038509
0.09584	0.01009131
0.09592	0.008767406
0.096	0.007636417
0.09608	0.007015924
0.09616	0.006298997
0.09624	0.005337899
0.09632	0.004407788
0.0964	0.00365018
0.09648	0.002886638
0.09656	0.001345444
0.09664	2.234826e-5
0.09672	-0.000325596
0.0968	-0.0006617233
0.09688	-0.0008427478
0.09696	-0.0009291901
0.09704	-0.0007663611
0.09712	-0.0007945842
0.0972	-0.0009584015
0.09728	-0.00108376
0.09736	-0.001033871
0.09744	-0.001590989
0.09752	-0.002077915
0.0976	-0.002782362
0.09768	-0.004400522
0.09776	-0.006066147
0.09784	-0.007336563
0.09792	-0.008606729
0.098	-0.009653535
0.09808	-0.009838776
0.09816	-0.009396797
0.09824	-0.009065246
0.09832	-0.009250137
0.0984	-0.0103242
0.09848	-0.01135901
0.09856	-0.01203972
0.09864	-0.01279934
0.09872	-0.01339943
0.0988	-0.01351981
0.09888	-0.01316331
0.09896	-0.0130604
0.09904	-0.01305841
0.09912	-0.01292974
0.0992	-0.01311348
0.09928	-0.0130666
0.09936	-0.01345362
0.09944	-0.01385127
0.09952	-0.01384111
0.0996	-0.0137371
0.09968	-0.0133734
0.09976	-0.01321554
0.09984	-0.01355698
0.09992	-0.01416777
0.1	-0.01462291
0.10008	-0.01556256
0.10016	-0.01579433
0.10024	-0.01562058
0.10032	-0.01572308
0.1004	-0.01594236
0.10048	-0.01620871
0.10056	-0.0164721
0.10064	-0.0163547
0.10072	-0.01639723
0.1008	-0.01742489
0.10088	-0.01782698
0.10096	-0.01830645
0.10104	-0.01854637
0.10112	-0.01883066
0.1012	-0.01881853
0.10128	-0.01845168
0.10136	-0.01818707
0.10144	-0.0180619
0.10152	-0.01819031
0.1016	-0.01807641
0.10168	-0.0180701
0.10176	-0.01786644
0.10184	-0.01732743
0.10192	-0.01655969
0.102	-0.01532686
0.10208	-0.01445895
0.10216	-0.01393835
0.10224	-0.014435
0.10232	-0.01526596
0.1024	-0.01607471
0.10248	-0.01627034
0.10256	-0.01666153
0.10264	-0.01763383
0.10272	-0.01844451
0.1028	-0.01811669
0.10288	-0.01725582
0.10296	-0.01702822
0.10304	-0.01684542
0.10312	-0.01628971
0.1032	-0.01505443
0.10328	-0.01403128
0.10336	-0.01362097
0.10344	-0.01426102
0.10352	-0.01484613
0.1036	-0.01516552
0.10368	-0.01474694
0.10376	-0.01411498
0.10384	-0.01403195
0.10392	-0.01411864
0.104	-0.01414763
0.10408	-0.01407665
0.10416	-0.01305972
0.10424	-0.01246949
0.10432	-0.01276352
0.1044	-0.01299614
0.10448	-0.01332982
0.10456	-0.01329195
0.10464	-0.01283631
0.10472	-0.01181468
0.1048	-0.01115005
0.10488	-0.01105779
0.10496	-0.01138121
0.10504	-0.01166357
0.10512	-0.01122035
0.1052	-0.011304
0.10528	-0.0110454
0.10536	-0.01004286
0.10544	-0.009210031
0.10552	-0.008366026
0.1056	-0.007778582
0.10568	-0.00756532
0.10576	-0.007874571
0.10584	-0.008609505
0.10592	-0.009351301
0.106	-0.009962921
0.10608	-0.01020885
0.10616	-0.009164318
0.10624	-0.008210496
0.10632	-0.007458712
0.1064	-0.006839456
0.10648	-0.006110049
0.10656	-0.005387174
0.10664	-0.004456161
0.10672	-0.003161026
0.1068	-0.002291972
0.10688	-0.001780743
0.10696	-0.001627496
0.10704	-0.001159594
0.10712	-0.001501917
0.1072	-0.001891596
0.10728	-0.001524689
0.10736	-0.001402886
0.10744	-0.001290652
0.10752	-0.0007849305
0.1076	0.0002250428
0.10768	0.0003731769
0.10776	0.0008987128
0.10784	0.00228839
0.10792	0.003388111
0.108	0.004332663
0.10808	0.005013577
0.10816	0.006002451
0.10824	0.006647633
0.10832	0.006692609
0.1084	0.006742534
0.10848	0.006530034
0.10856	0.006646475
0.10864	0.007045769
0.10872	0.007591344
0.1088	0.007913634
0.10888	0.009045218
0.10896	0.009799087
0.10904	0.01000812
0.10912	0.009389075
0.1092	0.008724379
0.10928	0.008413003
0.10936	0.007940006
0.10944	0.008905306
0.10952	0.01021984
0.1096	0.01131944
0.10968	0.0122548
0.10976	0.01262568
0.10984	0.01326944
0.10992	0.01417874
0.11	0.01509364
0.11008	0.01634912
0.11016	0.01729615
0.11024	0.01780082
0.11032	0.01861586
0.1104	0.01876212
0.11048	0.01771756
0.11056	0.01714488
0.11064	0.01669523
0.11072	0.01693094
0.1108	0.01727635
0.11088	0.01782781
0.11096	0.01770251
0.11104	0.01722455
0.11112	0.01744897
0.1112	0.01758
0.11128	0.0175111
0.11136	0.01788448
0.11144	0.01783987
0.11152	0.0176142
0.1116	0.01718799
0.11168	0.01618307
0.11176	0.01575811
0.11184	0.01565193
0.11192	0.01567254
0.112	0.01599904
0.11208	0.01650221
0.11216	0.01673022
0.11224	0.01624662
0.11232	0.01551251
0.1124	0.01487413
0.11248	0.01522136
0.11256	0.01524379
0.11264	0.01488968
0.11272	0.01491382
0.1128	0.01519296
0.11288	0.01535098
0.11296	0.01539122
0.11304	0.01533122
0.11312	0.01474989
0.1132	0.01462668
0.11328	0.01485627
0.11336	0.01475494
0.11344	0.01443012
0.11352	0.01396131
0.1136	0.01304657
0.11368	0.01217154
0.11376	0.01135996
0.11384	0.01039536
0.11392	0.0105886
0.114	0.01111058
0.11408	0.01129875
0.11416	0.01179335
0.11424	0.01220501
0.11432	0.0117781
0.1144	0.01214411
0.11448	0.01247513
0.11456	0.01326015
0.11464	0.01439494
0.11472	0.01488459
0.1148	0.01453473
0.11488	0.01370212
0.11496	0.01307281
0.11504	0.01273672
0.11512	0.01231064
0.1152	0.01266986
0.11528	0.0137719
0.11536	0.01497148
0.11544	0.01517906
0.11552	0.01430085
0.1156	0.01392552
0.11568	0.01336013
0.11576	0.01281039
0.11584	0.01183729
0.11592	0.01132145
0.116	0.01086661
0.11608	0.01017065
0.11616	0.009951117
0.11624	0.01000617
0.11632	0.00979056
0.1164	0.009086612
0.11648	0.008243502
0.11656	0.007868894
0.11664	0.007223082
0.11672	0.006382355
0.1168	0.005925229
0.11688	0.00564684
0.11696	0.005782798
0.11704	0.005852475
0.11712	0.00516071
0.1172	0.004792283
0.11728	0.004417835
0.11736	0.004204364
0.11744	0.004326125
0.11752	0.004235882
0.1176	0.003685624
0.11768	0.002944954
0.11776	0.00183761
0.11784	0.0008208899
0.11792	0.0004049318
0.118	-7.116546e-5
0.11808	-0.001626696
0.11816	-0.003059962
0.11824	-0.003368816
0.11832	-0.003378781
0.1184	-0.003223897
0.11848	-0.003546311
0.11856	-0.003567964
0.11864	-0.004152089
0.11872	-0.004807873
0.1188	-0.005921742
0.11888	-0.006300218
0.11896	-0.006313642
0.11904	-0.006732185
0.11912	-0.007190174
0.1192	-0.008324514
0.11928	-0.009452473
0.11936	-0.01055005
0.11944	-0.01106232
0.11952	-0.01219909
0.1196	-0.0128908
0.11968	-0.01314795
0.11976	-0.01373121
0.11984	-0.01440176
0.11992	-0.01486943
0.12	-0.0148828
0.12008	-0.01563754
0.12016	-0.01679392
0.12024	-0.01805267
0.12032	-0.01885526
0.1204	-0.01869569
0.12048	-0.0178388
0.12056	-0.01727474
0.12064	-0.01733888
0.12072	-0.01661615
0.1208	-0.0161703
0.12088	-0.01590628
0.12096	-0.01560299
0.12104	-0.01539666
0.12112	-0.01606745
0.1212	-0.01635659
0.12128	-0.01624355
0.12136	-0.01587608
0.12144	-0.01532902
0.12152	-0.01578963
0.1216	-0.01653945
0.12168	-0.01707463
0.12176	-0.01826628
0.12184	-0.01964766
0.12192	-0.02013822
0.122	-0.02010923
0.12208	-0.02031562
0.12216	-0.02047769
0.12224	-0.02016436
0.12232	-0.01996725
0.1224	-0.01939031
0.12248	-0.01885717
0.12256	-0.01875766
0.12264	-0.01853113
0.12272	-0.01809502
0.1228	-0.01813677
0.12288	-0.01824755
0.12296	-0.01824174
0.12304	-0.01775463
0.12312	-0.01710476
0.1232	-0.01742218
0.12328	-0.01736397
0.12336	-0.01714243
0.12344	-0.01687969
0.12352	-0.01573663
0.1236	-0.01528192
0.12368	-0.0151341
0.12376	-0.01527948
0.12384	-0.01470771
0.12392	-0.01357782
0.124	-0.0134188
0.12408	-0.0132165
0.12416	-0.01301796
0.12424	-0.01254617
0.12432	-0.01241838
0.1244	-0.01216258
0.12448	-0.0120573
0.12456	-0.01330066
0.12464	-0.01373066
0.12472	-0.01361391
0.1248	-0.01362874
0.12488	-0.01339902
0.12496	-0.01359763
0.12504	-0.01410628
0.12512	-0.0138865
0.1252	-0.01276456
0.12528	-0.0118062
0.12536	-0.01114791
0.12544	-0.01009986
0.12552	-0.01009085
0.1256	-0.01085787
0.12568	-0.0109914
0.12576	-0.01106957
0.12584	-0.01153727
0.12592	-0.01110216
0.126	-0.0106154
0.12608	-0.009802965
0.12616	-0.008934238
0.12624	-0.007665303
0.12632	-0.006378752
0.1264	-0.00643136
0.12648	-0.006728862
0.12656	-0.006101162
0.12664	-0.005959051
0.12672	-0.006048137
0.1268	-0.005387683
0.12688	-0.004394886
0.12696	-0.003755598
0.12704	-0.003167899
0.12712	-0.002253966
0.1272	-0.001439984
0.12728	-0.001255389
0.12736	-0.001697456
0.12744	-0.002195491
0.12752	-0.002080996
0.1276	-0.001301374
0.12768	-0.0008235061
0.12776	-0.0002470489
0.12784	0.0002317909
0.12792	0.0007930629
0.128	0.0009528089
0.12808	0.0008588305
0.12816	0.0005360604
0.12824	0.0002583891
0.12832	0.0001493178
0.1284	0.000747034
0.12848	0.001501945
0.12856	0.002086052
0.12864	0.002745487
0.12872	0.003600508
0.1288	0.004973799
0.12888	0.005349856
0.12896	0.005604616
0.12904	0.006356348
0.12912	0.007698028
0.1292	0.009061894
0.12928	0.009863691
0.12936	0.01008565
0.12944	0.01030776
0.12952	0.01050471
0.1296	0.01024086
0.12968	0.01017622
0.12976	0.01085659
0.12984	0.0114078
0.12992	0.01224963
0.13	0.01302311
0.13008	0.01366512
0.13016	0.01384489
0.13024	0.01506602
0.13032	0.01623481
0.1304	0.01714137
0.13048	0.01711481
0.13056	0.01704148
0.13064	0.01678899
0.13072	0.0162945
0.1308	0.01637141
0.13088	0.01655261
0.13096	0.01701125
0.13104	0.01726172
0.13112	0.01751368
0.1312	0.01775161
0.13128	0.01730396
0.13136	0.0166552
0.13144	0.01667775
0.13152	0.01662355
0.1316	0.01615945
0.13168	0.01549363
0.13176	0.01551948
0.13184	0.0153711
0.13192	0.01581285
0.132	0.01639309
0.13208	0.01657608
0.13216	0.01661875
0.13224	0.01681796
0.13232	0.01698333
0.1324	0.01689689
0.13248	0.01638703
0.13256	0.0160273
0.13264	0.01615361
0.13272	0.0165829
0.1328	0.0173552
0.13288	0.01836251
0.13296	0.01897281
0.13304	0.01967504
0.13312	0.01954789
0.1332	0.01903206
0.13328	0.01821317
0.13336	0.01777483
0.13344	0.01729471
0.13352	0.01751909
0.1336	0.01731936
0.13368	0.01671306
0.13376	0.01612418
0.13384	0.01541266
0.13392	0.01488548
0.134	0.01482402
0.13408	0.01561811
0.13416	0.0168594
0.13424	0.01769159
0.13432	0.01752285
0.1344	0.01701408
0.13448	0.01609129
0.13456	0.01541968
0.13464	0.01536365
0.13472	0.01502137
0.1348	0.01507504
0.13488	0.0151477
0.13496	0.01429213
0.13504	0.01364556
0.13512	0.01308861
0.1352	0.01282084
0.13528	0.01246741
0.13536	0.01218647
0.13544	0.01189517
0.13552	0.01179962
0.1356	0.01147619
0.13568	0.01156466
0.13576	0.01138911
0.13584	0.01091043
0.13592	0.01089968
0.136	0.01059254
0.13608	0.009753073
0.13616	0.009104325
0.13624	0.00824369
0.13632	0.0072225
0.1364	0.006834382
0.13648	0.006222009
0.13656	0.006110485
0.13664	0.005550111
0.13672	0.004539209
0.1368	0.003857022
0.13688	0.002836296
0.13696	0.002482227
0.13704	0.002183785
0.13712	0.001654964
0.1372	0.001146136
0.13728	0.0005407064
0.13736	0.0004285772
0.13744	0.0006289881
0.13752	0.0009860444
0.1376	0.001020982
0.13768	0.001146593
0.13776	0.0002751368
0.13784	-0.0007986931
0.13792	-0.002078712
0.138	-0.002696286
0.13808	-0.003285263
0.13816	-0.004304094
0.13824	-0.004867094
0.13832	-0.005337173
0.1384	-0.005751976
0.13848	-0.00604741
0.13856	-0.005725169
0.13864	-0.005775102
0.13872	-0.006580963
0.1388	-0.00643793
0.13888	-0.006239853
0.13896	-0.006459634
0.13904	-0.006836682
0.13912	-0.006677039
0.1392	-0.007090021
0.13928	-0.007936794
0.13936	-0.007710397
0.13944	-0.007908584
0.13952	-0.008199069
0.1396	-0.008906608
0.13968	-0.00913369
0.13976	-0.009253304
0.13984	-0.009647734
0.13992	-0.009645064
0.14	-0.01001414
0.14008	-0.01036449
0.14016	-0.01094915
0.14024	-0.01085377
0.14032	-0.01091452
0.1404	-0.01184875
0.14048	-0.01233756
0.14056	-0.0125192
0.14064	-0.01275887
0.14072	-0.01358348
0.1408	-0.01403876
0.14088	-0.01415268
0.14096	-0.01482249
0.14104	-0.01501768
0.14112	-0.01478948
0.1412	-0.01489808
0.14128	-0.01472782
0.14136	-0.0139725
0.14144	-0.01387928
0.14152	-0.01319722
0.1416	-0.01259165
0.14168	-0.01307989
0.14176	-0.0137737
0.14184	-0.01381834
0.14192	-0.01393733
0.142	-0.01426769
0.14208	-0.01440078
0.14216	-0.01448237
0.14224	-0.01459379
0.14232	-0.0148734
0.1424	-0.0151386
0.14248	-0.01481298
0.14256	-0.01439876
0.14264	-0.01401132
0.14272	-0.01411788
0.1428	-0.01386961
0.14288	-0.01437197
0.14296	-0.01445468
0.14304	-0.01409854
0.14312	-0.01431859
0.1432	-0.01433362
0.14328	-0.01421955
0.14336	-0.01479911
0.14344	-0.01498856
0.14352	-0.01487659
0.1436	-0.01523841
0.14368	-0.01609614
0.14376	-0.01696309
0.14384	-0.01777747
0.14392	-0.01807808
0.144	-0.01811073
0.14408	-0.01835113
0.14416	-0.01832543
0.14424	-0.01746872
0.14432	-0.01685432
0.1444	-0.01675274
0.14448	-0.01673818
0.14456	-0.01734391
0.14464	-0.01757328
0.14472	-0.01800004
0.1448	-0.01914975
0.14488	-0.01988007
0.14496	-0.01973813
0.14504	-0.01870357
0.14512	-0.01783501
0.1452	-0.01788916
0.14528	-0.0175611
0.14536	-0.0172813
0.14544	-0.0162772
0.14552	-0.0154983
0.1456	-0.01539286
0.14568	-0.01542897
0.14576	-0.01566241
0.14584	-0.01586508
0.14592	-0.0156058
0.146	-0.01489099
0.14608	-0.0142227
0.14616	-0.01436934
0.14624	-0.0147299
0.14632	-0.01463066
0.1464	-0.0144653
0.14648	-0.01354068
0.14656	-0.01205476
0.14664	-0.01089378
0.14672	-0.0103257
0.1468	-0.0101277
0.14688	-0.01010848
0.14696	-0.01022444
0.14704	-0.00996071
0.14712	-0.009265751
0.1472	-0.008171779
0.14728	-0.00710226
0.14736	-0.006765917
0.14744	-0.006336118
0.14752	-0.005854561
0.1476	-0.004834212
0.14768	-0.003960823
0.14776	-0.003703977
0.14784	-0.003167538
0.14792	-0.002869393
0.148	-0.002482349
0.14808	-0.002804975
0.14816	-0.003439446
0.14824	-0.003137258
0.14832	-0.002356421
0.1484	-0.002314918
0.14848	-0.002502594
0.14856	-0.002259677
0.14864	-0.001850506
0.14872	-0.001278031
0.1488	-0.0005030697
0.14888	0.0007289037
0.14896	0.002153814
0.14904	0.003318519
0.14912	0.003939407
0.1492	0.004869106
0.14928	0.005599321
0.14936	0.006164316
0.14944	0.007245693
0.14952	0.007907046
0.1496	0.008239183
0.14968	0.008986828
0.14976	0.009342283
0.14984	0.009673379
0.14992	0.009570689
0.15	0.009514996
0.15008	0.01003754
0.15016	0.01073074
0.15024	0.01133237
0.15032	0.01142675
0.1504	0.01231637
0.15048	0.01376487
0.15056	0.01405502
0.15064	0.01407359
0.15072	0.01409883
0.1508	0.01341984
0.15088	0.01318029
0.15096	0.01369606
0.15104	0.01391764
0.15112	0.01397321
0.1512	0.01419802
0.15128	0.01451521
0.15136	0.01508185
0.15144	0.01502559
0.15152	0.01526953
0.1516	0.01566042
0.15168	0.01652701
0.15176	0.01666695
0.15184	0.01649256
0.15192	0.01690896
0.152	0.01706127
0.15208	0.01692081
0.15216	0.01667066
0.15224	0.017239
0.15232	0.01779555
0.1524	0.01777767
0.15248	0.01768002
0.15256	0.01750221
0.15264	0.0170267
0.15272	0.01667497
0.1528	0.01659576
0.15288	0.01671775
0.15296	0.01744527
0.15304	0.01858893
0.15312	0.01920061
0.1532	0.02026107
0.15328	0.02063602
0.15336	0.02077145
0.15344	0.02109057
0.15352	0.02118548
0.1536	0.02132515
0.15368	0.02188058
0.15376	0.02231529
0.15384	0.02212108
0.15392	0.02209626
0.154	0.02154547
0.15408	0.02111696
0.15416	0.02067796
0.15424	0.01998105
0.15432	0.01893572
0.1544	0.01819793
0.15448	0.01825748
0.15456	0.01864311
0.15464	0.01857894
0.15472	0.01795182
0.1548	0.01824897
0.15488	0.01868152
0.15496	0.01841348
0.15504	0.01799042
0.15512	0.01714653
0.1552	0.01715819
0.15528	0.01726395
0.15536	0.01700059
0.15544	0.01677147
0.15552	0.01594231
0.1556	0.01541769
0.15568	0.01541568
0.15576	0.01491873
0.15584	0.01434676
0.15592	0.01396342
0.156	0.01308075
0.15608	0.0124966
0.15616	0.01168011
0.15624	0.01159056
0.15632	0.01156607
0.1564	0.01100082
0.15648	0.01060045
0.15656	0.009690152
0.15664	0.008442746
0.15672	0.006849178
0.1568	0.005848024
0.15688	0.004783926
0.15696	0.004225828
0.15704	0.004571422
0.15712	0.004733061
0.1572	0.005033097
0.15728	0.005081289
0.15736	0.00502953
0.15744	0.005247655
0.15752	0.004482691
0.1576	0.003681618
0.15768	0.003118043
0.15776	0.001753316
0.15784	0.001237528
0.15792	0.0008728747
0.158	9.465789e-5
0.15808	-0.0003141072
0.15816	-0.000198616
0.15824	-0.0008886211
0.15832	-0.002176975
0.1584	-0.002717714
0.15848	-0.002721232
0.15856	-0.002796669
0.15864	-0.003370527
0.15872	-0.00370921
0.1588	-0.004296805
0.15888	-0.004547627
0.15896	-0.005202291
0.15904	-0.005392267
0.15912	-0.006041416
0.1592	-0.006499413
0.15928	-0.00644425
0.15936	-0.006852658
0.15944	-0.00751319
0.15952	-0.008436274
0.1596	-0.009349445
0.15968	-0.01005576
0.15976	-0.01064221
0.15984	-0.01096954
0.15992	-0.01171951
0.16	-0.01294494
0.16008	-0.01401607
0.16016	-0.01434894
0.16024	-0.01523208
0.16032	-0.01600807
0.1604	-0.01631958
0.16048	-0.01670701
0.16056	-0.01733156
0.16064	-0.01805262
0.16072	-0.01795205
0.1608	-0.01702541
0.16088	-0.01631578
0.16096	-0.01612187
0.16104	-0.01617014
0.16112	-0.01678329
0.1612	-0.01750678
0.16128	-0.01732309
0.16136	-0.01748441
0.16144	-0.01774223
0.16152	-0.01746409
0.1616	-0.01749218
0.16168	-0.01740942
0.16176	-0.01760905
0.16184	-0.01797859
0.16192	-0.01853393
0.162	-0.01913335
0.16208	-0.01915131
0.16216	-0.01898638
0.16224	-0.01898772
0.16232	-0.0186868
0.1624	-0.01898047
0.16248	-0.01887764
0.16256	-0.01859203
0.16264	-0.01875272
0.16272	-0.01896131
0.1628	-0.01867621
0.16288	-0.01801307
0.16296	-0.01723485
0.16304	-0.01693603
0.16312	-0.01710636
0.1632	-0.01673893
0.16328	-0.01602717
0.16336	-0.0156166
0.16344	-0.01551528
0.16352	-0.01578446
0.1636	-0.01580201
0.16368	-0.01553569
0.16376	-0.01581743
0.16384	-0.01592758
0.16392	-0.01531874
0.164	-0.014505
0.16408	-0.01440758
0.16416	-0.01473199
0.16424	-0.01467451
0.16432	-0.01470836
0.1644	-0.01444584
0.16448	-0.01356012
0.16456	-0.01266983
0.16464	-0.01227297
0.16472	-0.01217754
0.1648	-0.01201258
0.16488	-0.01199369
0.16496	-0.01141344
0.16504	-0.01138356
0.16512	-0.01161235
0.1652	-0.01190866
0.16528	-0.01241764
0.16536	-0.0124509
0.16544	-0.01170118
0.16552	-0.01055071
0.1656	-0.01005963
0.16568	-0.00929031
0.16576	-0.008837817
0.16584	-0.008833823
0.16592	-0.008366407
0.166	-0.007847277
0.16608	-0.007641054
0.16616	-0.007310677
0.16624	-0.007539455
0.16632	-0.007488384
0.1664	-0.007315682
0.16648	-0.006939783
0.16656	-0.006919986
0.16664	-0.006145369
0.16672	-0.00534763
0.1668	-0.004292604
0.16688	-0.003471128
0.16696	-0.002818771
0.16704	-0.001538838
0.16712	-0.001297616
0.1672	-0.0004118078
0.16728	-6.536896e-6
0.16736	-0.0001112157
0.16744	1.520496e-5
0.16752	-0.0002523666
0.1676	0.0001495278
0.16768	0.0002484299
0.16776	-9.023309e-5
0.16784	6.761939e-5
0.16792	0.001074741
0.168	0.001797371
0.16808	0.002277942
0.16816	0.002807583
0.16824	0.003033697
0.16832	0.00319638
0.1684	0.002962705
0.16848	0.002829802
0.16856	0.002508764
0.16864	0.002575481
0.16872	0.00322958
0.1688	0.003929864
0.16888	0.003932981
0.16896	0.004110989
0.16904	0.005149923
0.16912	0.006172848
0.1692	0.006930255
0.16928	0.007633104
0.16936	0.008512637
0.16944	0.00910248
0.16952	0.009561863
0.1696	0.008970901
0.16968	0.008567009
0.16976	0.008950126
0.16984	0.00870121
0.16992	0.008231902
0.17	0.008246791
0.17008	0.00911399
0.17016	0.009935927
0.17024	0.01050445
0.17032	0.01057065
0.1704	0.01052449
0.17048	0.01051319
0.17056	0.0107655
0.17064	0.0112811
0.17072	0.01205916
0.1708	0.01302225
0.17088	0.01374336
0.17096	0.01416806
0.17104	0.01476423
0.17112	0.01555779
0.1712	0.01617945
0.17128	0.01651022
0.17136	0.01698897
0.17144	0.01740583
0.17152	0.01790286
0.1716	0.01839014
0.17168	0.01874021
0.17176	0.01950384
0.17184	0.02026326
0.17192	0.02108098
0.172	0.02106769
0.17208	0.02045568
0.17216	0.02024231
0.17224	0.02060171
0.17232	0.02072838
0.1724	0.02136989
0.17248	0.02219901
0.17256	0.02293948
0.17264	0.02336697
0.17272	0.0239427
0.1728	0.02371768
0.17288	0.0235948
0.17296	0.02388614
0.17304	0.0236881
0.17312	0.0234089
0.1732	0.02286278
0.17328	0.0224695
0.17336	0.02234957
0.17344	0.0223674
0.17352	0.02280436
0.1736	0.02273001
0.17368	0.02257898
0.17376	0.02175836
0.17384	0.02131843
0.17392	0.02128346
0.174	0.02125476
0.17408	0.0206445
0.17416	0.01937338
0.17424	0.01841731
0.17432	0.01780309
0.1744	0.01760427
0.17448	0.01641077
0.17456	0.01554101
0.17464	0.0149218
0.17472	0.01498728
0.1748	0.01391174
0.17488	0.01290271
0.17496	0.01229084
0.17504	0.01188274
0.17512	0.01115838
0.1752	0.01037181
0.17528	0.009592494
0.17536	0.008584054
0.17544	0.007435333
0.17552	0.006798135
0.1756	0.00626726
0.17568	0.005562687
0.17576	0.004635075
0.17584	0.004190752
0.17592	0.004121548
0.176	0.003159459
0.17608	0.002551587
0.17616	0.002191623
0.17624	0.001590263
0.17632	0.0004886371
0.1764	-3.918554e-5
0.17648	-0.0002581078
0.17656	-0.0004516911
0.17664	0.0002519905
0.17672	0.001505149
0.1768	0.002437143
0.17688	0.003112692
0.17696	0.003615135
0.17704	0.003918602
0.17712	0.003545367
0.1772	0.003524696
0.17728	0.003439932
0.17736	0.002750469
0.17744	0.001877168
0.17752	0.001197299
0.1776	0.0006792133
0.17768	8.095444e-5
0.17776	-0.0004004544
0.17784	-0.0005613158
0.17792	-0.001018568
0.178	-0.001266628
0.17808	-0.00128731
0.17816	-0.001168624
0.17824	-0.001143837
0.17832	-0.002258288
0.1784	-0.002849535
0.17848	-0.002820021
0.17856	-0.003018842
0.17864	-0.003371143
0.17872	-0.003614058
0.1788	-0.003306537
0.17888	-0.004045195
0.17896	-0.004641546
0.17904	-0.004238937
0.17912	-0.004349624
0.1792	-0.004629761
0.17928	-0.005072186
0.17936	-0.005659483
0.17944	-0.006159086
0.17952	-0.006343768
0.1796	-0.006612526
0.17968	-0.007358846
0.17976	-0.008103846
0.17984	-0.008587283
0.17992	-0.009289359
0.18	-0.009332703
0.18008	-0.009169064
0.18016	-0.009031057
0.18024	-0.009204891
0.18032	-0.009671684
0.1804	-0.009618211
0.18048	-0.01020382
0.18056	-0.01075279
0.18064	-0.01114739
0.18072	-0.01152008
0.1808	-0.01220847
0.18088	-0.01316391
0.18096	-0.01413937
0.18104	-0.0144451
0.18112	-0.01396065
0.1812	-0.01352919
0.18128	-0.01293942
0.18136	-0.01256875
0.18144	-0.01256965
0.18152	-0.01329833
0.1816	-0.01430209
0.18168	-0.01483755
0.18176	-0.01481619
0.18184	-0.01488481
0.18192	-0.01494127
0.182	-0.01488011
0.18208	-0.01430908
0.18216	-0.01363343
0.18224	-0.0136908
0.18232	-0.01384758
0.1824	-0.01426999
0.18248	-0.01469541
0.18256	-0.01404436
0.18264	-0.014278
0.18272	-0.0147683
0.1828	-0.01486309
0.18288	-0.01466727
0.18296	-0.01455145
0.18304	-0.01437462
0.18312	-0.01410825
0.1832	-0.01367947
0.18328	-0.01325082
0.18336	-0.01297285
0.18344	-0.01170222
0.18352	-0.01097125
0.1836	-0.00974155
0.18368	-0.008892113
0.18376	-0.008189299
0.18384	-0.007329124
0.18392	-0.006925873
0.184	-0.006914835
0.18408	-0.007046198
0.18416	-0.006960881
0.18424	-0.007657388
0.18432	-0.008843031
0.1844	-0.009389918
0.18448	-0.009100169
0.18456	-0.009591077
0.18464	-0.01020532
0.18472	-0.01043742
0.1848	-0.01004009
0.18488	-0.009599029
0.18496	-0.008896179
0.18504	-0.00811611
0.18512	-0.007777788
0.1852	-0.008011073
0.18528	-0.008306197
0.18536	-0.00900069
0.18544	-0.008845858
0.18552	-0.008151215
0.1856	-0.008192265
0.18568	-0.008146749
0.18576	-0.007597594
0.18584	-0.00748154
0.18592	-0.007067114
0.186	-0.006681693
0.18608	-0.006491419
0.18616	-0.006704339
0.18624	-0.00704232
0.18632	-0.006890342
0.1864	-0.005990938
0.18648	-0.00489328
0.18656	-0.004532516
0.18664	-0.004503369
0.18672	-0.004778511
0.1868	-0.004661933
0.18688	-0.00442274
0.18696	-0.00411186
0.18704	-0.004196994
0.18712	-0.004598786
0.1872	-0.003956111
0.18728	-0.002970899
0.18736	-0.002612129
0.18744	-0.002375223
0.18752	-0.001868403
0.1876	-0.002048447
0.18768	-0.001504179
0.18776	-0.0006005371
0.18784	0.0003467656
0.18792	0.001162931
0.188	0.001338187
0.18808	0.001785708
0.18816	0.002995688
0.18824	0.003670714
0.18832	0.003919849
0.1884	0.003958734
0.18848	0.003607562
0.18856	0.003890107
0.18864	0.00452603
0.18872	0.005022126
0.1888	0.004954665
0.18888	0.004977125
0.18896	0.004960767
0.18904	0.004227802
0.18912	0.003970706
0.1892	0.003758168
0.18928	0.004191429
0.18936	0.004899235
0.18944	0.005681272
0.18952	0.006019739
0.1896	0.00648662
0.18968	0.007100763
0.18976	0.007368665
0.18984	0.007562361
0.18992	0.007751844
0.19	0.007513974
0.19008	0.007488931
0.19016	0.008259885
0.19024	0.008847353
0.19032	0.009648258
0.1904	0.01057085
0.19048	0.01126834
0.19056	0.01170179
0.19064	0.01200416
0.19072	0.01171838
0.1908	0.01165356
0.19088	0.01083213
0.19096	0.01029122
0.19104	0.01042245
0.19112	0.01101895
0.1912	0.01077155
0.19128	0.01016184
0.19136	0.0101675
0.19144	0.01024739
0.19152	0.01030081
0.1916	0.01041456
0.19168	0.01046725
0.19176	0.01060881
0.19184	0.01032912
0.19192	0.01020859
0.192	0.01055436
0.19208	0.01081924
0.19216	0.01062883
0.19224	0.0103738
0.19232	0.009801021
0.1924	0.009484854
0.19248	0.009701631
0.19256	0.0097128
0.19264	0.009981306
0.19272	0.01029538
0.1928	0.01082787
0.19288	0.01129381
0.19296	0.01133359
0.19304	0.01141387
0.19312	0.01130617
0.1932	0.01087893
0.19328	0.01073337
0.19336	0.01129206
0.19344	0.01143617
0.19352	0.01182942
0.1936	0.01217529
0.19368	0.01180647
0.19376	0.01160056
0.19384	0.01146069
0.19392	0.01172932
0.194	0.0122475
0.19408	0.01242325
0.19416	0.01234323
0.19424	0.01193374
0.19432	0.01130805
0.1944	0.01087184
0.19448	0.01113159
0.19456	0.01060417
0.19464	0.01062671
0.19472	0.01027776
0.1948	0.009360682
0.19488	0.008977762
0.19496	0.009272103
0.19504	0.01001622
0.19512	0.009975797
0.1952	0.01044041
0.19528	0.01059342
0.19536	0.009836865
0.19544	0.00966942
0.19552	0.01002004
0.1956	0.01042788
0.19568	0.01060151
0.19576	0.01014072
0.19584	0.009223785
0.19592	0.009110825
0.196	0.008985878
0.19608	0.008555679
0.19616	0.008040951
0.19624	0.007577249
0.19632	0.007359015
0.1964	0.007075028
0.19648	0.007082621
0.19656	0.007071172
0.19664	0.006908821
0.19672	0.006453754
0.1968	0.005960559
0.19688	0.005515832
0.19696	0.004736146
0.19704	0.003490803
0.19712	0.002138119
0.1972	0.0009015906
0.19728	-0.000283608
0.19736	-0.0007721164
0.19744	-0.0007544848
0.19752	-0.0004627541
0.1976	-0.00037709
0.19768	4.454963e-5
0.19776	0.0001500233
0.19784	-0.0004827525
0.19792	-0.001433894
0.198	-0.002033498
0.19808	-0.002537096
0.19816	-0.002695047
0.19824	-0.002630278
0.19832	-0.003498085
0.1984	-0.0038214
0.19848	-0.004115652
0.19856	-0.004885125
0.19864	-0.005268031
0.19872	-0.005516151
0.1988	-0.005821713
0.19888	-0.005966906
0.19896	-0.005953096
0.19904	-0.006616873
0.19912	-0.00680264
0.1992	-0.007022706
0.19928	-0.00710745
0.19936	-0.007193959
0.19944	-0.007220788
0.19952	-0.007022344
0.1996	-0.007502261
0.19968	-0.008534759
0.19976	-0.009546777
0.19984	-0.01023122
0.19992	-0.0105414
0.2	-0.01132941
0.20008	-0.0111185
0.20016	-0.01084877
0.20024	-0.01072589
0.20032	-0.01085314
0.2004	-0.01052422
0.20048	-0.01057446
0.20056	-0.0108591
0.20064	-0.011283
0.20072	-0.0119878
0.2008	-0.01319315
0.20088	-0.01380488
0.20096	-0.01372287
0.20104	-0.01339648
0.20112	-0.01300087
0.2012	-0.01289414
0.20128	-0.0126126
0.20136	-0.01255423
0.20144	-0.01259807
0.20152	-0.012956
0.2016	-0.01324791
0.20168	-0.01295638
0.20176	-0.01214148
0.20184	-0.01107585
0.20192	-0.01028077
0.202	-0.01043194
0.20208	-0.01091837
0.20216	-0.01067573
0.20224	-0.01081933
0.20232	-0.01098271
0.2024	-0.01176217
0.20248	-0.01178997
0.20256	-0.01136334
0.20264	-0.01105521
0.20272	-0.01048842
0.2028	-0.01036133
0.20288	-0.01035177
0.20296	-0.01008188
0.20304	-0.01058994
0.20312	-0.01139964
0.2032	-0.0121349
0.20328	-0.012597
0.20336	-0.01234827
0.20344	-0.01194423
0.20352	-0.01195667
0.2036	-0.01216783
0.20368	-0.01176156
0.20376	-0.01219659
0.20384	-0.01252459
0.20392	-0.01240489
0.204	-0.01259018
0.20408	-0.01269745
0.20416	-0.01269084
0.20424	-0.012123
0.20432	-0.01158999
0.2044	-0.01140484
0.20448	-0.01120148
0.20456	-0.01107607
0.20464	-0.01112779
0.20472	-0.01097099
0.2048	-0.01013769
0.20488	-0.009997332
0.20496	-0.009807462
0.20504	-0.009376634
0.20512	-0.009143719
0.2052	-0.008815402
0.20528	-0.007875882
0.20536	-0.007460259
0.20544	-0.007297104
0.20552	-0.007281265
0.2056	-0.006638515
0.20568	-0.005878137
0.20576	-0.006311759
0.20584	-0.006917437
0.20592	-0.007141809
0.206	-0.007124613
0.20608	-0.006658784
0.20616	-0.005539098
0.20624	-0.004315244
0.20632	-0.003464152
0.2064	-0.002793184
0.20648	-0.002452396
0.20656	-0.002538903
0.20664	-0.003289994
0.20672	-0.003580984
0.2068	-0.003388118
0.20688	-0.00283445
0.20696	-0.002329706
0.20704	-0.002342928
0.20712	-0.002446688
0.2072	-0.001846571
0.20728	-0.001014409
0.20736	-0.0003678855
0.20744	0.000695136
0.20752	0.001563262
0.2076	0.002640689
0.20768	0.003166605
0.20776	0.003575762
0.20784	0.004193866
0.20792	0.004901298
0.208	0.00482591
0.20808	0.004217564
0.20816	0.005209683
0.20824	0.006408636
0.20832	0.006608784
0.2084	0.006743308
0.20848	0.007226351
0.20856	0.007024277
0.20864	0.007085145
0.20872	0.007349319
0.2088	0.007845194
0.20888	0.008590782
0.20896	0.008721705
0.20904	0.008774049
0.20912	0.008459774
0.2092	0.008062873
0.20928	0.008151193
0.20936	0.008642365
0.20944	0.009389361
0.20952	0.01003916
0.2096	0.01082178
0.20968	0.01104347
0.20976	0.01040259
0.20984	0.009975653
0.20992	0.009772825
0.21	0.009823621
0.21008	0.009876631
0.21016	0.01049573
0.21024	0.01104401
0.21032	0.01131737
0.2104	0.01120365
0.21048	0.01087668
0.21056	0.01092721
0.21064	0.01185913
0.21072	0.01278398
0.2108	0.01333832
0.21088	0.01273038
0.21096	0.01262915
0.21104	0.01261559
0.21112	0.0124694
0.2112	0.01327224
0.21128	0.01361963
0.21136	0.01423993
0.21144	0.01488617
0.21152	0.01469355
0.2116	0.01415014
0.21168	0.01385472
0.21176	0.01427087
0.21184	0.01392968
0.21192	0.01369125
0.212	0.01349663
0.21208	0.01311967
0.21216	0.01303256
0.21224	0.0133139
0.21232	0.01377838
0.2124	0.01434144
0.21248	0.01481292
0.21256	0.01483138
0.21264	0.01429208
0.21272	0.01381185
0.2128	0.01306876
0.21288	0.01281152
0.21296	0.01338892
0.21304	0.0139451
0.21312	0.0142375
0.2132	0.01457832
0.21328	0.0157141
0.21336	0.01622378
0.21344	0.01622381
0.21352	0.01548995
0.2136	0.01483901
0.21368	0.01510423
0.21376	0.0148545
0.21384	0.01462538
0.21392	0.01466442
0.214	0.01486466
0.21408	0.01514977
0.21416	0.01501063
0.21424	0.01419728
0.21432	0.01352481
0.2144	0.0122868
0.21448	0.01096993
0.21456	0.009970759
0.21464	0.009270727
0.21472	0.009366019
0.2148	0.008553309
0.21488	0.007359119
0.21496	0.006546011
0.21504	0.005884585
0.21512	0.005741656
0.2152	0.005554836
0.21528	0.005776741
0.21536	0.006565438
0.21544	0.006935622
0.21552	0.006716012
0.2156	0.007165953
0.21568	0.007776714
0.21576	0.007004331
0.21584	0.006175314
0.21592	0.005933256
0.216	0.005431299
0.21608	0.004998397
0.21616	0.004083261
0.21624	0.002773149
0.21632	0.001667113
0.2164	0.0008802807
0.21648	4.258402e-5
0.21656	-0.000953345
0.21664	-0.001694802
0.21672	-0.001642269
0.2168	-0.001703976
0.21688	-0.001615943
0.21696	-0.001522672
0.21704	-0.001452713
0.21712	-0.001585356
0.2172	-0.001977811
0.21728	-0.001856537
0.21736	-0.002205423
0.21744	-0.002568263
0.21752	-0.002794011
0.2176	-0.00322213
0.21768	-0.003754935
0.21776	-0.00398016
0.21784	-0.004504509
0.21792	-0.004634206
0.218	-0.005304621
0.21808	-0.005702244
0.21816	-0.00572684
0.21824	-0.006500097
0.21832	-0.00714455
0.2184	-0.007368687
0.21848	-0.00823962
0.21856	-0.009058148
0.21864	-0.009639142
0.21872	-0.009839509
0.2188	-0.009393859
0.21888	-0.009077455
0.21896	-0.008661896
0.21904	-0.008174067
0.21912	-0.008173692
0.2192	-0.008944423
0.21928	-0.009948698
0.21936	-0.01061881
0.21944	-0.01112293
0.21952	-0.011494
0.2196	-0.01170149
0.21968	-0.01193286
0.21976	-0.01167394
0.21984	-0.01134213
0.21992	-0.01200752
0.22	-0.01252454
0.22008	-0.01272217
0.22016	-0.01276711
0.22024	-0.01271371
0.22032	-0.01262922
0.2204	-0.01292721
0.22048	-0.01364485
0.22056	-0.01442351
0.22064	-0.01505422
0.22072	-0.0149863
0.2208	-0.01499042
0.22088	-0.01551556
0.22096	-0.01575522
0.22104	-0.01591195
0.22112	-0.01562257
0.2212	-0.01551757
0.22128	-0.01555716
0.22136	-0.01576749
0.22144	-0.01623031
0.22152	-0.01651438
0.2216	-0.01626821
0.22168	-0.01599179
0.22176	-0.01637097
0.22184	-0.01656447
0.22192	-0.01679793
0.222	-0.01677253
0.22208	-0.01659833
0.22216	-0.01686974
0.22224	-0.01728055
0.22232	-0.01761761
0.2224	-0.01800795
0.22248	-0.01794669
0.22256	-0.01730023
0.22264	-0.0172321
0.22272	-0.01767551
0.2228	-0.01769177
0.22288	-0.01814888
0.22296	-0.01872304
0.22304	-0.01936604
0.22312	-0.02006339
0.2232	-0.02029205
0.22328	-0.02058532
0.22336	-0.020837
0.22344	-0.0201946
0.22352	-0.01931209
0.2236	-0.01911921
0.22368	-0.01920454
0.22376	-0.01898751
0.22384	-0.01894022
0.22392	-0.01927733
0.224	-0.01927607
0.22408	-0.01927961
0.22416	-0.0184352
0.22424	-0.01759825
0.22432	-0.01631296
0.2244	-0.01604901
0.22448	-0.01629987
0.22456	-0.01656265
0.22464	-0.01662521
0.22472	-0.0164795
0.2248	-0.01692122
0.22488	-0.01715709
0.22496	-0.01700873
0.22504	-0.01657487
0.22512	-0.01645944
0.2252	-0.01637828
0.22528	-0.01643349
0.22536	-0.01632457
0.22544	-0.01598252
0.22552	-0.01566417
0.2256	-0.01524783
0.22568	-0.0146452
0.22576	-0.01383959
0.22584	-0.01316925
0.22592	-0.01231825
0.226	-0.01251275
0.22608	-0.01243397
0.22616	-0.01217091
0.22624	-0.01207159
0.22632	-0.01195292
0.2264	-0.0112948
0.22648	-0.009997813
0.22656	-0.009411481
0.22664	-0.009222008
0.22672	-0.009136514
0.2268	-0.009357276
0.22688	-0.008889771
0.22696	-0.007938373
0.22704	-0.007293151
0.22712	-0.007029393
0.2272	-0.00685223
0.22728	-0.006129771
0.22736	-0.005527962
0.22744	-0.005114132
0.22752	-0.00457225
0.2276	-0.004026053
0.22768	-0.003720677
0.22776	-0.003523638
0.22784	-0.00300089
0.22792	-0.002464491
0.228	-0.001510021
0.22808	-0.0009018977
0.22816	-0.0009790137
0.22824	-0.0006300467
0.22832	4.808098e-5
0.2284	0.0004814274
0.22848	0.001217664
0.22856	0.002179827
0.22864	0.00266185
0.22872	0.003062283
0.2288	0.004048183
0.22888	0.004765285
0.22896	0.005162628
0.22904	0.005656053
0.22912	0.006509134
0.2292	0.007194518
0.22928	0.007431964
0.22936	0.007861272
0.22944	0.008475952
0.22952	0.008544165
0.2296	0.008775233
0.22968	0.009276439
0.22976	0.009413546
0.22984	0.009811024
0.22992	0.01005178
0.23	0.01043014
0.23008	0.01096995
0.23016	0.01133031
0.23024	0.01183177
0.23032	0.01312087
0.2304	0.01440531
0.23048	0.01537037
0.23056	0.01627059
0.23064	0.01751026
0.23072	0.01847264
0.2308	0.01982418
0.23088	0.02086785
0.23096	0.02172931
0.23104	0.02196254
0.23112	0.02160781
0.2312	0.02114598
0.23128	0.02082268
0.23136	0.0209194
0.23144	0.02125914
0.23152	0.02173964
0.2316	0.02174139
0.23168	0.02140704
0.23176	0.02043552
0.23184	0.02000317
0.23192	0.01959049
0.232	0.01933598
0.23208	0.01960578
0.23216	0.01960059
0.23224	0.01915335
0.23232	0.01821293
0.2324	0.01785882
0.23248	0.01758186
0.23256	0.01739092
0.23264	0.01717651
0.23272	0.01643373
0.2328	0.01660979
0.23288	0.01756379
0.23296	0.01810441
0.23304	0.01800394
0.23312	0.01775148
0.2332	0.01769593
0.23328	0.0176616
0.23336	0.01692827
0.23344	0.01662455
0.23352	0.01637341
0.2336	0.01570987
0.23368	0.01554393
0.23376	0.01460993
0.23384	0.01385133
0.23392	0.01388405
0.234	0.01363445
0.23408	0.01300605
0.23416	0.01354396
0.23424	0.01440545
0.23432	0.01472777
0.2344	0.01499214
0.23448	0.01468499
0.23456	0.013752
0.23464	0.01297988
0.23472	0.01203882
0.2348	0.01180779
0.23488	0.01209714
0.23496	0.01186244
0.23504	0.01217528
0.23512	0.01230466
0.2352	0.01212202
0.23528	0.01185974
0.23536	0.01085756
0.23544	0.01119637
0.23552	0.01115585
0.2356	0.01056763
0.23568	0.009698672
0.23576	0.009152539
0.23584	0.00879918
0.23592	0.008805415
0.236	0.008858201
0.23608	0.008834117
0.23616	0.009052342
0.23624	0.008924418
0.23632	0.008319078
0.2364	0.007258039
0.23648	0.006490897
0.23656	0.006074276
0.23664	0.00571528
0.23672	0.005702624
0.2368	0.005546832
0.23688	0.00501577
0.23696	0.005187879
0.23704	0.005190641
0.23712	0.004667166
0.2372	0.004728438
0.23728	0.004785054
0.23736	0.004947231
0.23744	0.005076702
0.23752	0.00481527
0.2376	0.004383995
0.23768	0.00403623
0.23776	0.003881266
0.23784	0.003469647
0.23792	0.002938927
0.238	0.002270103
0.23808	0.001049947
0.23816	-0.00020434
0.23824	-0.0008585739
0.23832	-0.001508474
0.2384	-0.001947018
0.23848	-0.002344541
0.23856	-0.002710521
0.23864	-0.00277335
0.23872	-0.003186449
0.2388	-0.003672586
0.23888	-0.003505262
0.23896	-0.00387901
0.23904	-0.005170207
0.23912	-0.006945978
0.2392	-0.007952234
0.23928	-0.009211924
0.23936	-0.009863839
0.23944	-0.01001
0.23952	-0.01017749
0.2396	-0.01097953
0.23968	-0.01207562
0.23976	-0.01245285
0.23984	-0.01286166
0.23992	-0.01293515
0.24	-0.01335489
0.24008	-0.01437167
0.24016	-0.01524631
0.24024	-0.01557618
0.24032	-0.01628627
0.2404	-0.01680205
0.24048	-0.0164331
0.24056	-0.01681616
0.24064	-0.01741358
0.24072	-0.01780078
0.2408	-0.01740928
0.24088	-0.01650305
0.24096	-0.01616759
0.24104	-0.01696166
0.24112	-0.01691571
0.2412	-0.01649024
0.24128	-0.01610462
0.24136	-0.01522192
0.24144	-0.01500171
0.24152	-0.01481936
0.2416	-0.01348231
0.24168	-0.01230617
0.24176	-0.01209293
0.24184	-0.01285268
0.24192	-0.01358147
0.242	-0.01411762
0.24208	-0.01449518
0.24216	-0.0150846
0.24224	-0.01532207
0.24232	-0.01514609
0.2424	-0.01471108
0.24248	-0.01442064
0.24256	-0.01371728
0.24264	-0.01345583
0.24272	-0.01377225
0.2428	-0.01406308
0.24288	-0.01438812
0.24296	-0.01483533
0.24304	-0.01542233
0.24312	-0.01624633
0.2432	-0.01636035
0.24328	-0.01620007
0.24336	-0.01622363
0.24344	-0.01527719
0.24352	-0.01438853
0.2436	-0.01378597
0.24368	-0.01259152
0.24376	-0.01162607
0.24384	-0.0112221
0.24392	-0.01135271
0.244	-0.01132314
0.24408	-0.01161184
0.24416	-0.0118013
0.24424	-0.01115181
0.24432	-0.01016246
0.2444	-0.01004189
0.24448	-0.01011658
0.24456	-0.009809258
0.24464	-0.009857795
0.24472	-0.01034576
0.2448	-0.010434
0.24488	-0.01047904
0.24496	-0.01002637
0.24504	-0.01001068
0.24512	-0.01029141
0.2452	-0.01034934
0.24528	-0.010106
0.24536	-0.009473361
0.24544	-0.008849391
0.24552	-0.008623962
0.2456	-0.008418169
0.24568	-0.008284721
0.24576	-0.008644759
0.24584	-0.008510748
0.24592	-0.008339212
0.246	-0.007798317
0.24608	-0.006861886
0.24616	-0.006047803
0.24624	-0.005385114
0.24632	-0.004835038
0.2464	-0.004720216
0.24648	-0.004453344
0.24656	-0.004189699
0.24664	-0.004480002
0.24672	-0.004262703
0.2468	-0.003905324
0.24688	-0.003520596
0.24696	-0.003286917
0.24704	-0.003317985
0.24712	-0.003442729
0.2472	-0.003257751
0.24728	-0.002545089
0.24736	-0.002197488
0.24744	-0.001884771
0.24752	-0.001965987
0.2476	-0.002079697
0.24768	-0.002141624
0.24776	-0.002231359
0.24784	-0.001760449
0.24792	-0.001311396
0.248	-0.0007995992
0.24808	-0.0003685406
0.24816	0.0005306991
0.24824	0.001664808
0.24832	0.002852735
0.2484	0.003704959
0.24848	0.004432259
0.24856	0.004772777
0.24864	0.004910728
0.24872	0.005411573
0.2488	0.006119039
0.24888	0.00631585
0.24896	0.006462404
0.24904	0.006679323
0.24912	0.006782455
0.2492	0.007217232
0.24928	0.007620061
0.24936	0.008534524
0.24944	0.009988575
0.24952	0.01108602
0.2496	0.0119148
0.24968	0.01248233
0.24976	0.01331721
0.24984	0.01375157
0.24992	0.01366041
0.25	0.01384137
0.25008	0.01382331
0.25016	0.01432713
0.25024	0.01479818
0.25032	0.01524866
0.2504	0.01518161
0.25048	0.01487603
0.25056	0.01508801
0.25064	0.0158623
0.25072	0.01641788
0.2508	0.01598473
0.25088	0.01551558
0.25096	0.01447691
0.25104	0.01364885
0.25112	0.01282151
0.2512	0.01311174
0.25128	0.01411466
0.25136	0.01432259
0.25144	0.01427558
0.25152	0.0142544
0.2516	0.01445539
0.25168	0.0139886
0.25176	0.01380233
0.25184	0.01418518
0.25192	0.01398981
0.252	0.01440821
0.25208	0.014989
0.25216	0.01560678
0.25224	0.0158222
0.25232	0.01553024
0.2524	0.0152474
0.25248	0.01496095
0.25256	0.014491
0.25264	0.01398352
0.25272	0.01368967
0.2528	0.01371772
0.25288	0.01363228
0.25296	0.01346915
0.25304	0.01384646
0.25312	0.01399442
0.2532	0.01383652
0.25328	0.01356849
0.25336	0.01373732
0.25344	0.01392015
0.25352	0.01374948
0.2536	0.0138644
0.25368	0.01395864
0.25376	0.01396596
0.25384	0.01390866
0.25392	0.01406874
0.254	0.01430776
0.25408	0.01443739
0.25416	0.01394283
0.25424	0.01387622
0.25432	0.01337049
0.2544	0.01301089
0.25448	0.01307095
0.25456	0.01287721
0.25464	0.01200844
0.25472	0.01138666
0.2548	0.01062716
0.25488	0.009676312
0.25496	0.009539008
0.25504	0.009329739
0.25512	0.008859932
0.2552	0.007728721
0.25528	0.007016198
0.25536	0.007054852
0.25544	0.006189959
0.25552	0.005966163
0.2556	0.005785088
0.25568	0.005092165
0.25576	0.005033558
0.25584	0.004296544
0.25592	0.004246204
0.256	0.004224166
0.25608	0.00400989
0.25616	0.003953832
0.25624	0.004164385
0.25632	0.004221737
0.2564	0.004046424
0.25648	0.003944454
0.25656	0.003469881
0.25664	0.003332299
0.25672	0.003314257
0.2568	0.00349118
0.25688	0.003230002
0.25696	0.003152991
0.25704	0.003594597
0.25712	0.004333306
0.2572	0.003941277
0.25728	0.002863461
0.25736	0.002478062
0.25744	0.002385024
0.25752	0.002560971
0.2576	0.002556171
0.25768	0.002650693
0.25776	0.002724413
0.25784	0.00244215
0.25792	0.001855494
0.258	0.0009644392
0.25808	0.0002485605
0.25816	-0.0003858783
0.25824	-0.001043396
0.25832	-0.001250385
0.2584	-0.001229073
0.25848	-0.001148753
0.25856	-0.001360166
0.25864	-0.001965662
0.25872	-0.002714523
0.2588	-0.002951739
0.25888	-0.003486167
0.25896	-0.00405683
0.25904	-0.00504875
0.25912	-0.00631483
0.2592	-0.007060478
0.25928	-0.007151124
0.25936	-0.006724249
0.25944	-0.007192132
0.25952	-0.007850393
0.2596	-0.00874327
0.25968	-0.009507614
0.25976	-0.01003726
0.25984	-0.01057083
0.25992	-0.01074691
0.26	-0.01105956
0.26008	-0.01124958
0.26016	-0.01106971
0.26024	-0.0104723
0.26032	-0.01024738
0.2604	-0.01041659
0.26048	-0.01079532
0.26056	-0.01120786
0.26064	-0.01091758
0.26072	-0.01058635
0.2608	-0.009808795
0.26088	-0.01009273
0.26096	-0.01004424
0.26104	-0.009718216
0.26112	-0.009656924
0.2612	-0.01037182
0.26128	-0.01090834
0.26136	-0.01118808
0.26144	-0.0119347
0.26152	-0.01210342
0.2616	-0.01284937
0.26168	-0.01249242
0.26176	-0.01168022
0.26184	-0.01133825
0.26192	-0.01171195
0.262	-0.0121664
0.26208	-0.01258172
0.26216	-0.0134758
0.26224	-0.01417103
0.26232	-0.01421742
0.2624	-0.0134797
0.26248	-0.01316173
0.26256	-0.01360189
0.26264	-0.01370858
0.26272	-0.01366739
0.2628	-0.01376622
0.26288	-0.01392124
0.26296	-0.01458511
0.26304	-0.01513817
0.26312	-0.01557786
0.2632	-0.0151486
0.26328	-0.01532296
0.26336	-0.01515147
0.26344	-0.01501227
0.26352	-0.01505181
0.2636	-0.01518864
0.26368	-0.01465339
0.26376	-0.01422932
0.26384	-0.01449941
0.26392	-0.0141864
0.264	-0.01402872
0.26408	-0.01363743
0.26416	-0.01339902
0.26424	-0.01238873
0.26432	-0.0111364
0.2644	-0.01077931
0.26448	-0.009963485
0.26456	-0.008680253
0.26464	-0.008534114
0.26472	-0.009144986
0.2648	-0.009552007
0.26488	-0.009480493
0.26496	-0.009317761
0.26504	-0.009702125
0.26512	-0.009363196
0.2652	-0.008961117
0.26528	-0.00865791
0.26536	-0.008164815
0.26544	-0.007679871
0.26552	-0.006956535
0.2656	-0.006626908
0.26568	-0.006488463
0.26576	-0.006511705
0.26584	-0.006441778
0.26592	-0.00589781
0.266	-0.006008151
0.26608	-0.006173723
0.26616	-0.005473383
0.26624	-0.004156323
0.26632	-0.003019981
0.2664	-0.002879133
0.26648	-0.002734527
0.26656	-0.002194832
0.26664	-0.001134914
0.26672	-0.001135931
0.2668	-0.0008940316
0.26688	-0.0009613954
0.26696	-0.001188994
0.26704	-0.001477338
0.26712	-0.001629548
0.2672	-0.001743935
0.26728	-0.001756729
0.26736	-0.001772221
0.26744	-0.002365208
0.26752	-0.002956905
0.2676	-0.002940454
0.26768	-0.00268407
0.26776	-0.002713095
0.26784	-0.002454491
0.26792	-0.002209651
0.268	-0.00185055
0.26808	-0.001901979
0.26816	-0.001806394
0.26824	-0.001435187
0.26832	-0.00111723
0.2684	-0.0007572575
0.26848	0.0002415127
0.26856	0.001481102
0.26864	0.002344887
0.26872	0.003010245
0.2688	0.003610877
0.26888	0.004243214
0.26896	0.00481531
0.26904	0.005143989
0.26912	0.005105447
0.2692	0.005177401
0.26928	0.005908033
0.26936	0.006918665
0.26944	0.007645018
0.26952	0.008185308
0.2696	0.008276606
0.26968	0.008095293
0.26976	0.008186407
0.26984	0.008248815
0.26992	0.008315205
0.27	0.00812606
0.27008	0.007541778
0.27016	0.007090129
0.27024	0.007169849
0.27032	0.007746691
0.2704	0.008202154
0.27048	0.00820132
0.27056	0.00791427
0.27064	0.008195529
0.27072	0.00888011
0.2708	0.009188938
0.27088	0.009533332
0.27096	0.01017347
0.27104	0.01096771
0.27112	0.01062903
0.2712	0.01018775
0.27128	0.009881035
0.27136	0.00972849
0.27144	0.009815076
0.27152	0.01007549
0.2716	0.01077592
0.27168	0.01083834
0.27176	0.01125123
0.27184	0.01132322
0.27192	0.01083483
0.272	0.01116938
0.27208	0.01159934
0.27216	0.01194051
0.27224	0.01241532
0.27232	0.0130369
0.2724	0.01397333
0.27248	0.0151481
0.27256	0.01555957
0.27264	0.01517402
0.27272	0.01454999
0.2728	0.01421176
0.27288	0.01403282
0.27296	0.01368308
0.27304	0.01393715
0.27312	0.01444895
0.2732	0.01496009
0.27328	0.0139166
0.27336	0.01265358
0.27344	0.01231377
0.27352	0.0121235
0.2736	0.01251353
0.27368	0.01309959
0.27376	0.01334517
0.27384	0.01354636
0.27392	0.0140969
0.274	0.01401973
0.27408	0.01335567
0.27416	0.01300894
0.27424	0.01267798
0.27432	0.01249869
0.2744	0.01235194
0.27448	0.01216969
0.27456	0.01212703
0.27464	0.01225557
0.27472	0.01274885
0.2748	0.01199011
0.27488	0.01103543
0.27496	0.01085756
0.27504	0.01132286
0.27512	0.0111236
0.2752	0.010411
0.27528	0.01064366
0.27536	0.01077085
0.27544	0.01073419
0.27552	0.01013765
0.2756	0.009103714
0.27568	0.008671266
0.27576	0.008624831
0.27584	0.00864388
0.27592	0.008676036
0.276	0.008230974
0.27608	0.007227601
0.27616	0.006729543
0.27624	0.006078137
0.27632	0.005608289
0.2764	0.005174515
0.27648	0.004937108
0.27656	0.004923306
0.27664	0.004770494
0.27672	0.004885794
0.2768	0.004856859
0.27688	0.003889488
0.27696	0.00291686
0.27704	0.002308054
0.27712	0.002104901
0.2772	0.001564239
0.27728	0.001267892
0.27736	0.001480641
0.27744	0.001604131
0.27752	0.001371037
0.2776	0.00164114
0.27768	0.002201392
0.27776	0.0022188
0.27784	0.002177015
0.27792	0.002002213
0.278	0.002053165
0.27808	0.001228394
0.27816	-0.0001054115
0.27824	-0.0004217566
0.27832	-0.0009250496
0.2784	-0.002395576
0.27848	-0.003036411
0.27856	-0.003125265
0.27864	-0.00288989
0.27872	-0.002923023
0.2788	-0.003910362
0.27888	-0.004738488
0.27896	-0.004958565
0.27904	-0.005391611
0.27912	-0.005969137
0.2792	-0.006260674
0.27928	-0.006770792
0.27936	-0.007267269
0.27944	-0.007684059
0.27952	-0.008480697
0.2796	-0.008882902
0.27968	-0.009681921
0.27976	-0.0101735
0.27984	-0.01056143
0.27992	-0.0109099
0.28	-0.01137273
0.28008	-0.01210066
0.28016	-0.01190717
0.28024	-0.01182109
0.28032	-0.01147214
0.2804	-0.01136573
0.28048	-0.0111555
0.28056	-0.01126177
0.28064	-0.01145267
0.28072	-0.01191345
0.2808	-0.01258444
0.28088	-0.0124001
0.28096	-0.01241675
0.28104	-0.01222818
0.28112	-0.01233334
0.2812	-0.01236442
0.28128	-0.01278213
0.28136	-0.01406673
0.28144	-0.01506934
0.28152	-0.01492593
0.2816	-0.0143571
0.28168	-0.01443008
0.28176	-0.01464119
0.28184	-0.01475873
0.28192	-0.01466185
0.282	-0.01427862
0.28208	-0.01412305
0.28216	-0.01436791
0.28224	-0.0149477
0.28232	-0.01527811
0.2824	-0.0154233
0.28248	-0.01514368
0.28256	-0.0147388
0.28264	-0.01392179
0.28272	-0.01378344
0.2828	-0.01389792
0.28288	-0.01329254
0.28296	-0.01310876
0.28304	-0.01315215
0.28312	-0.01340945
0.2832	-0.01294055
0.28328	-0.01308573
0.28336	-0.01324659
0.28344	-0.01360945
0.28352	-0.01398353
0.2836	-0.01417763
0.28368	-0.01414989
0.28376	-0.0136595
0.28384	-0.01322026
0.28392	-0.01188622
0.284	-0.01113708
0.28408	-0.0105372
0.28416	-0.009841863
0.28424	-0.009122988
0.28432	-0.008177345
0.2844	-0.00781877
0.28448	-0.00764183
0.28456	-0.007298004
0.28464	-0.007893896
0.28472	-0.007681453
0.2848	-0.007376906
0.28488	-0.006896691
0.28496	-0.006412557
0.28504	-0.006439947
0.28512	-0.005853346
0.2852	-0.005518955
0.28528	-0.005111985
0.28536	-0.005096851
0.28544	-0.005106159
0.28552	-0.005081736
0.2856	-0.005281914
0.28568	-0.005758683
0.28576	-0.006128657
0.28584	-0.00570493
0.28592	-0.005233246
0.286	-0.004519814
0.28608	-0.003891932
0.28616	-0.004140391
0.28624	-0.004436374
0.28632	-0.004381777
0.2864	-0.004210373
0.28648	-0.003742432
0.28656	-0.002450203
0.28664	-0.001388346
0.28672	-0.0007862124
0.2868	-0.0007477673
0.28688	-0.0008559527
0.28696	-0.00108998
0.28704	-0.0008785987
0.28712	-0.0008187217
0.2872	-0.0005630975
0.28728	-0.0002415544
0.28736	-0.0001765582
0.28744	-0.0005731218
0.28752	-0.001444309
0.2876	-0.0009429154
0.28768	0.0002497465
0.28776	0.001491949
0.28784	0.002293232
0.28792	0.002987686
0.288	0.003937891
0.28808	0.004888791
0.28816	0.004692834
0.28824	0.004343904
0.28832	0.00441183
0.2884	0.004841455
0.28848	0.005033578
0.28856	0.004772262
0.28864	0.004981673
0.28872	0.005500461
0.2888	0.006048601
0.28888	0.006662014
0.28896	0.00734673
0.28904	0.008287157
0.28912	0.008704078
0.2892	0.008620475
0.28928	0.008696685
0.28936	0.009244098
0.28944	0.01018502
0.28952	0.01121705
0.2896	0.01155932
0.28968	0.01203249
0.28976	0.01173413
0.28984	0.01167967
0.28992	0.01155921
0.29	0.01140566
0.29008	0.01167272
0.29016	0.01166126
0.29024	0.01183343
0.29032	0.01187501
0.2904	0.01216428
0.29048	0.01307729
0.29056	0.01414118
0.29064	0.01477983
0.29072	0.01481087
0.2908	0.0144243
0.29088	0.01381299
0.29096	0.01339568
0.29104	0.01343425
0.29112	0.01455722
0.2912	0.01532376
0.29128	0.01579277
0.29136	0.01701283
0.29144	0.01711124
0.29152	0.01682958
0.2916	0.01683152
0.29168	0.01642053
0.29176	0.01601475
0.29184	0.01596118
0.29192	0.01632559
0.292	0.0159978
0.29208	0.01527538
0.29216	0.01451572
0.29224	0.01426546
0.29232	0.01414235
0.2924	0.01464542
0.29248	0.01482942
0.29256	0.01458561
0.29264	0.01518834
0.29272	0.01552272
0.2928	0.01605905
0.29288	0.01580885
0.29296	0.01545841
0.29304	0.01560623
0.29312	0.01557078
0.2932	0.01564047
0.29328	0.01492624
0.29336	0.01418385
0.29344	0.01389717
0.29352	0.01415386
0.2936	0.01460496
0.29368	0.01495044
0.29376	0.01494618
0.29384	0.01472024
0.29392	0.01453554
0.294	0.01398318
0.29408	0.0137192
0.29416	0.0140092
0.29424	0.01408376
0.29432	0.01326851
0.2944	0.01266399
0.29448	0.01184672
0.29456	0.01182127
0.29464	0.01223762
0.29472	0.01183647
0.2948	0.01144584
0.29488	0.01058705
0.29496	0.009733356
0.29504	0.009020528
0.29512	0.00896613
0.2952	0.009169982
0.29528	0.009851985
0.29536	0.01019762
0.29544	0.009568671
0.29552	0.009493794
0.2956	0.009044732
0.29568	0.008409587
0.29576	0.007638155
0.29584	0.007362743
0.29592	0.00666098
0.296	0.006337522
0.29608	0.006873673
0.29616	0.006822992
0.29624	0.006458484
0.29632	0.005706019
0.2964	0.004658144
0.29648	0.003357843
0.29656	0.002788072
0.29664	0.00283745
0.29672	0.003377427
0.2968	0.003593819
0.29688	0.002646596
0.29696	0.002432829
0.29704	0.001444072
0.29712	0.0005746841
0.2972	0.0001424651
0.29728	-0.0005104384
0.29736	-0.0004674483
0.29744	-0.0008737418
0.29752	-0.0009882613
0.2976	-0.001340624
0.29768	-0.001614531
0.29776	-0.002198417
0.29784	-0.003189796
0.29792	-0.003124449
0.298	-0.003212336
0.29808	-0.003814261
0.29816	-0.004013085
0.29824	-0.004438004
0.29832	-0.005557362
0.2984	-0.006272517
0.29848	-0.006932328
0.29856	-0.007334323
0.29864	-0.0073253
0.29872	-0.007048278
0.2988	-0.007064896
0.29888	-0.006963226
0.29896	-0.006921065
0.29904	-0.007324442
0.29912	-0.007381168
0.2992	-0.008245818
0.29928	-0.008680731
0.29936	-0.008648419
0.29944	-0.009023981
0.29952	-0.009326601
0.2996	-0.009682018
0.29968	-0.009871976
0.29976	-0.009633224
0.29984	-0.009833769
0.29992	-0.01093051
0.3	-0.01224893
0.30008	-0.01297356
0.30016	-0.01309228
0.30024	-0.01355485
0.30032	-0.01409147
0.3004	-0.01407868
0.30048	-0.01391271
0.30056	-0.01389978
0.30064	-0.01412182
0.30072	-0.01481024
0.3008	-0.0153341
0.30088	-0.01566792
0.30096	-0.01638361
0.30104	-0.0171096
0.30112	-0.01766732
0.3012	-0.01799432
0.30128	-0.01833314
0.30136	-0.01840007
0.30144	-0.01850442
0.30152	-0.01929593
0.3016	-0.01965362
0.30168	-0.01880677
0.30176	-0.01888332
0.30184	-0.01930192
0.30192	-0.01919587
0.302	-0.01893253
0.30208	-0.01883207
0.30216	-0.01865121
0.30224	-0.01891582
0.30232	-0.01934156
0.3024	-0.0192889
0.30248	-0.01897483
0.30256	-0.01884572
0.30264	-0.01868444
0.30272	-0.0187756
0.3028	-0.01861553
0.30288	-0.01883412
0.30296	-0.01916116
0.30304	-0.0196458
0.30312	-0.01952999
0.3032	-0.0189475
0.30328	-0.01822392
0.30336	-0.01833225
0.30344	-0.01866977
0.30352	-0.01798266
0.3036	-0.01762718
0.30368	-0.01729084
0.30376	-0.01680443
0.30384	-0.01680435
0.30392	-0.01678346
0.304	-0.01666113
0.30408	-0.01646713
0.30416	-0.01632952
0.30424	-0.01588147
0.30432	-0.01537027
0.3044	-0.01424321
0.30448	-0.01287255
0.30456	-0.01170183
0.30464	-0.01094698
0.30472	-0.01062557
0.3048	-0.01025242
0.30488	-0.009457231
0.30496	-0.009293386
0.30504	-0.009046385
0.30512	-0.009102142
0.3052	-0.008883907
0.30528	-0.008463829
0.30536	-0.007662841
0.30544	-0.007018382
0.30552	-0.006096425
0.3056	-0.005869089
0.30568	-0.005914923
0.30576	-0.005840995
0.30584	-0.005790944
0.30592	-0.005854415
0.306	-0.005446644
0.30608	-0.004555257
0.30616	-0.004394723
0.30624	-0.004165618
0.30632	-0.004050131
0.3064	-0.003505011
0.30648	-0.003186982
0.30656	-0.003331878
0.30664	-0.003307223
0.30672	-0.002597062
0.3068	-0.001897145
0.30688	-0.001830411
0.30696	-0.002065515
0.30704	-0.001738003
0.30712	-0.001113515
0.3072	-0.0006150518
0.30728	-0.0003568581
0.30736	-0.000682739
0.30744	-0.0005928793
0.30752	-0.0007729973
0.3076	-0.0009994952
0.30768	-0.0007955128
0.30776	-0.0005831124
0.30784	-0.0001090517
0.30792	9.157228e-5
0.308	7.493106e-5
0.30808	1.054473e-5
0.30816	0.0001202225
0.30824	7.000822e-5
0.30832	0.0001999208
0.3084	0.001292584
0.30848	0.002410785
0.30856	0.003213978
0.30864	0.003931173
0.30872	0.004846702
0.3088	0.005653764
0.30888	0.005782287
0.30896	0.006033739
0.30904	0.006442822
0.30912	0.006339963
0.3092	0.006066697
0.30928	0.005969032
0.30936	0.005280474
0.30944	0.004978813
0.30952	0.00518111
0.3096	0.005619687
0.30968	0.006377282
0.30976	0.006850119
0.30984	0.007553566
0.30992	0.007508753
0.31	0.007492984
0.31008	0.007730826
0.31016	0.007803303
0.31024	0.007470902
0.31032	0.00776743
0.3104	0.008251058
0.31048	0.008490094
0.31056	0.008865111
0.31064	0.01011249
0.31072	0.01134577
0.3108	0.01207787
0.31088	0.01300588
0.31096	0.01293319
0.31104	0.0127997
0.31112	0.01315351
0.3112	0.0134362
0.31128	0.01277876
0.31136	0.01175833
0.31144	0.01098771
0.31152	0.01072501
0.3116	0.01126083
0.31168	0.01177642
0.31176	0.01203559
0.31184	0.0116834
0.31192	0.01130868
0.312	0.01105104
0.31208	0.01097388
0.31216	0.01084749
0.31224	0.01062369
0.31232	0.01112067
0.3124	0.01131611
0.31248	0.01107493
0.31256	0.01013026
0.31264	0.01021547
0.31272	0.0103649
0.3128	0.009953582
0.31288	0.009621587
0.31296	0.009057198
0.31304	0.009180599
0.31312	0.009487834
0.3132	0.01039705
0.31328	0.01101992
0.31336	0.01127125
0.31344	0.01054569
0.31352	0.009964732
0.3136	0.00994755
0.31368	0.01014177
0.31376	0.01106845
0.31384	0.01136815
0.31392	0.01089681
0.314	0.01045001
0.31408	0.01028354
0.31416	0.01002087
0.31424	0.009702079
0.31432	0.009638594
0.3144	0.009288566
0.31448	0.009810938
0.31456	0.009760443
0.31464	0.009305281
0.31472	0.008930737
0.3148	0.008594724
0.31488	0.008507356
0.31496	0.007983599
0.31504	0.008134935
0.31512	0.0083931
0.3152	0.008596235
0.31528	0.00850332
0.31536	0.007990761
0.31544	0.007148747
0.31552	0.006560229
0.3156	0.005869625
0.31568	0.005901141
0.31576	0.00599411
0.31584	0.006229995
0.31592	0.006062773
0.316	0.005776548
0.31608	0.005735783
0.31616	0.005567328
0.31624	0.005484567
0.31632	0.005251171
0.3164	0.004865668
0.31648	0.004332073
0.31656	0.004590056
0.31664	0.00509277
0.31672	0.005136066
0.3168	0.005180574
0.31688	0.005184391
0.31696	0.004945252
0.31704	0.004168116
0.31712	0.003224446
0.3172	0.002827443
0.31728	0.00258295
0.31736	0.003080912
0.31744	0.003148795
0.31752	0.002698168
0.3176	0.00190643
0.31768	0.0007633347
0.31776	9.058548e-5
0.31784	0.0003564409
0.31792	-4.972684e-5
0.318	-0.0003063808
0.31808	-6.074036e-5
0.31816	0.0002700832
0.31824	-0.0001066239
0.31832	-0.001150083
0.3184	-0.001489533
0.31848	-0.001435181
0.31856	-0.001358909
0.31864	-0.00130344
0.31872	-0.001378919
0.3188	-0.001651522
0.31888	-0.002125672
0.31896	-0.002206683
0.31904	-0.002350126
0.31912	-0.002514785
0.3192	-0.002656554
0.31928	-0.002711702
0.31936	-0.002459653
0.31944	-0.003106995
0.31952	-0.004514512
0.3196	-0.006137478
0.31968	-0.007133496
0.31976	-0.008036943
0.31984	-0.009374183
0.31992	-0.01052677
0.32	-0.01073268
0.32008	-0.01112517
0.32016	-0.0118308
0.32024	-0.01204104
0.32032	-0.01177033
0.3204	-0.01137934
0.32048	-0.01125034
0.32056	-0.01185636
0.32064	-0.01232306
0.32072	-0.01278453
0.3208	-0.01329631
0.32088	-0.0137534
0.32096	-0.01404845
0.32104	-0.01487922
0.32112	-0.01515521
0.3212	-0.01470436
0.32128	-0.01464015
0.32136	-0.01515891
0.32144	-0.01577978
0.32152	-0.01525064
0.3216	-0.01477836
0.32168	-0.01445651
0.32176	-0.01450067
0.32184	-0.01511067
0.32192	-0.01563667
0.322	-0.01587318
0.32208	-0.01552132
0.32216	-0.01522258
0.32224	-0.01491593
0.32232	-0.01462526
0.3224	-0.01526493
0.32248	-0.01606685
0.32256	-0.01628628
0.32264	-0.01590554
0.32272	-0.01534456
0.3228	-0.01507078
0.32288	-0.01495126
0.32296	-0.01565459
0.32304	-0.01654945
0.32312	-0.01750475
0.3232	-0.01839882
0.32328	-0.01854091
0.32336	-0.01851559
0.32344	-0.01789177
0.32352	-0.01704949
0.3236	-0.01630662
0.32368	-0.01554178
0.32376	-0.01492039
0.32384	-0.01492207
0.32392	-0.01504755
0.324	-0.01492612
0.32408	-0.01460809
0.32416	-0.01433958
0.32424	-0.01410154
0.32432	-0.01384122
0.3244	-0.01324482
0.32448	-0.01248762
0.32456	-0.01140268
0.32464	-0.01152323
0.32472	-0.01162738
0.3248	-0.01154455
0.32488	-0.01212485
0.32496	-0.01198237
0.32504	-0.01074147
0.32512	-0.009939806
0.3252	-0.009283217
0.32528	-0.008712916
0.32536	-0.007507588
0.32544	-0.006736604
0.32552	-0.005679682
0.3256	-0.004758058
0.32568	-0.004830766
0.32576	-0.004639988
0.32584	-0.004625135
0.32592	-0.004450357
0.326	-0.004330665
0.32608	-0.003274241
0.32616	-0.001370261
0.32624	0.0004041483
0.32632	0.001653134
0.3264	0.002485813
0.32648	0.003424564
0.32656	0.003271382
0.32664	0.002532005
0.32672	0.002131056
0.3268	0.001704257
0.32688	0.001680017
0.32696	0.002152812
0.32704	0.002123408
0.32712	0.00149381
0.3272	0.0008607076
0.32728	0.0001364176
0.32736	-0.0006620776
0.32744	-0.001135264
0.32752	-0.001380125
0.3276	-0.001114635
0.32768	-0.0003855694
0.32776	0.0006232003
0.32784	0.001650194
0.32792	0.002487061
0.328	0.003468752
0.32808	0.004794618
0.32816	0.006172347
0.32824	0.00799843
0.32832	0.00925178
0.3284	0.01066528
0.32848	0.01142739
0.32856	0.01143011
0.32864	0.01144134
0.32872	0.0115211
0.3288	0.0118358
0.32888	0.01189636
0.32896	0.01124838
0.32904	0.01103165
0.32912	0.01090536
0.3292	0.01130288
0.32928	0.0110434
0.32936	0.01094306
0.32944	0.01181011
0.32952	0.01261147
0.3296	0.01261069
0.32968	0.01251422
0.32976	0.01265139
0.32984	0.01265859
0.32992	0.01266861
0.33	0.01274235
0.33008	0.01288773
0.33016	0.01356427
0.33024	0.01415359
0.33032	0.01413443
0.3304	0.01431216
0.33048	0.01456756
0.33056	0.01456061
0.33064	0.01482856
0.33072	0.01544093
0.3308	0.01547058
0.33088	0.01561224
0.33096	0.01568257
0.33104	0.0156368
0.33112	0.01594059
0.3312	0.0159655
0.33128	0.01661993
0.33136	0.01719757
0.33144	0.01864898
0.33152	0.01917482
0.3316	0.01882945
0.33168	0.01844586
0.33176	0.01855594
0.33184	0.0186031
0.33192	0.01885423
0.332	0.01883521
0.33208	0.01838621
0.33216	0.0186215
0.33224	0.01892667
0.33232	0.01820221
0.3324	0.01685402
0.33248	0.01592861
0.33256	0.01608055
0.33264	0.01640914
0.33272	0.01622484
0.3328	0.01554547
0.33288	0.01508459
0.33296	0.01468418
0.33304	0.01473766
0.33312	0.01476462
0.3332	0.01515696
0.33328	0.01549301
0.33336	0.01533856
0.33344	0.01502975
0.33352	0.01472965
0.3336	0.01404703
0.33368	0.01344363
0.33376	0.01288107
0.33384	0.01180256
0.33392	0.01068583
0.334	0.01018444
0.33408	0.01038158
0.33416	0.01041671
0.33424	0.01052006
0.33432	0.01073045
0.3344	0.01046655
0.33448	0.01039395
0.33456	0.01012976
0.33464	0.009816856
0.33472	0.009324275
0.3348	0.00867
0.33488	0.009102312
0.33496	0.009573827
0.33504	0.00943217
0.33512	0.009085901
0.3352	0.008678197
0.33528	0.008176431
0.33536	0.008244661
0.33544	0.008340619
0.33552	0.008481358
0.3356	0.00863329
0.33568	0.008848688
0.33576	0.008209769
0.33584	0.006797565
0.33592	0.006319325
0.336	0.005861242
0.33608	0.005017961
0.33616	0.003591615
0.33624	0.0024021
0.33632	0.001161071
0.3364	0.0001102952
0.33648	-0.0004081914
0.33656	-0.0004239626
0.33664	-2.468349e-5
0.33672	7.066647e-5
0.3368	-0.0002177657
0.33688	-0.0005512597
0.33696	-0.001493288
0.33704	-0.002065462
0.33712	-0.001918715
0.3372	-0.00187794
0.33728	-0.00191263
0.33736	-0.001357604
0.33744	-0.001690747
0.33752	-0.00224196
0.3376	-0.002401145
0.33768	-0.00291257
0.33776	-0.003417987
0.33784	-0.003756366
0.33792	-0.004319708
0.338	-0.005018573
0.33808	-0.005400816
0.33816	-0.00559551
0.33824	-0.005793428
0.33832	-0.006444446
0.3384	-0.007360174
0.33848	-0.00754259
0.33856	-0.007367881
0.33864	-0.007075216
0.33872	-0.006477109
0.3388	-0.005890977
0.33888	-0.006427579
0.33896	-0.007785619
0.33904	-0.008584664
0.33912	-0.009601383
0.3392	-0.01072273
0.33928	-0.01138298
0.33936	-0.01206028
0.33944	-0.01232482
0.33952	-0.01237593
0.3396	-0.01171464
0.33968	-0.01206505
0.33976	-0.01176876
0.33984	-0.01143603
0.33992	-0.01159546
0.34	-0.01161087
0.34008	-0.01238972
0.34016	-0.01353685
0.34024	-0.01467085
0.34032	-0.01536599
0.3404	-0.01545053
0.34048	-0.01491937
0.34056	-0.01428125
0.34064	-0.01299367
0.34072	-0.01185474
0.3408	-0.0122192
0.34088	-0.01250714
0.34096	-0.01235971
0.34104	-0.0124852
0.34112	-0.01310311
0.3412	-0.01453322
0.34128	-0.01584592
0.34136	-0.01605018
0.34144	-0.01593285
0.34152	-0.01620753
0.3416	-0.01595051
0.34168	-0.01542454
0.34176	-0.01505581
0.34184	-0.01507603
0.34192	-0.01484989
0.342	-0.01491917
0.34208	-0.01510758
0.34216	-0.0154388
0.34224	-0.01540607
0.34232	-0.0156874
0.3424	-0.01624043
0.34248	-0.01663398
0.34256	-0.01634025
0.34264	-0.01566759
0.34272	-0.01540957
0.3428	-0.01522381
0.34288	-0.01461669
0.34296	-0.01351672
0.34304	-0.01269092
0.34312	-0.0125136
0.3432	-0.01250052
0.34328	-0.01209966
0.34336	-0.01185846
0.34344	-0.01194184
0.34352	-0.01167367
0.3436	-0.0107125
0.34368	-0.01006449
0.34376	-0.00994785
0.34384	-0.0092339
0.34392	-0.008530689
0.344	-0.008699404
0.34408	-0.008730413
0.34416	-0.008716728
0.34424	-0.009032273
0.34432	-0.009315893
0.3444	-0.009147349
0.34448	-0.008681654
0.34456	-0.008428935
0.34464	-0.008137395
0.34472	-0.00696082
0.3448	-0.006010879
0.34488	-0.004853326
0.34496	-0.003581026
0.34504	-0.003038804
0.34512	-0.003119464
0.3452	-0.003962286
0.34528	-0.004948453
0.34536	-0.00514621
0.34544	-0.00447189
0.34552	-0.004129366
0.3456	-0.003781714
0.34568	-0.003221876
0.34576	-0.00317877
0.34584	-0.004049874
0.34592	-0.004322324
0.346	-0.003883553
0.34608	-0.00349118
0.34616	-0.00249393
0.34624	-0.00207583
0.34632	-0.001816427
0.3464	-0.00149982
0.34648	-0.0008777425
0.34656	-0.0001168963
0.34664	0.0009230243
0.34672	0.001936679
0.3468	0.002399788
0.34688	0.00289829
0.34696	0.002283706
0.34704	0.001100598
0.34712	1.39903e-5
0.3472	-0.0002142419
0.34728	0.0001411666
0.34736	4.670132e-5
0.34744	0.000114534
0.34752	-5.874636e-5
0.3476	-0.0003772388
0.34768	-0.0003588617
0.34776	-0.0005490278
0.34784	-0.0005609559
0.34792	-0.0004419298
0.348	0.0002078094
0.34808	0.001235198
0.34816	0.001768881
0.34824	0.002024148
0.34832	0.002688581
0.3484	0.003414155
0.34848	0.004337177
0.34856	0.004900745
0.34864	0.00518623
0.34872	0.005551388
0.3488	0.005453934
0.34888	0.005717385
0.34896	0.005948504
0.34904	0.005778366
0.34912	0.005149107
0.3492	0.004940859
0.34928	0.004736667
0.34936	0.004462983
0.34944	0.004215654
0.34952	0.004620972
0.3496	0.004981063
0.34968	0.00547595
0.34976	0.005691316
0.34984	0.006341678
0.34992	0.007121483
0.35	0.007664027
0.35008	0.008349314
0.35016	0.008716777
0.35024	0.009197455
0.35032	0.009207786
0.3504	0.01031883
0.35048	0.01123552
0.35056	0.01121179
0.35064	0.01119506
0.35072	0.01097656
0.3508	0.010692
0.35088	0.01033612
0.35096	0.009967349
0.35104	0.009893942
0.35112	0.01038236
0.3512	0.01080817
0.35128	0.01088667
0.35136	0.01157641
0.35144	0.01214461
0.35152	0.01252537
0.3516	0.013109
0.35168	0.01326137
0.35176	0.01274817
0.35184	0.01231461
0.35192	0.01209094
0.352	0.01206184
0.35208	0.0121871
0.35216	0.01265697
0.35224	0.01299391
0.35232	0.01356802
0.3524	0.01431321
0.35248	0.01448403
0.35256	0.01449377
0.35264	0.01419822
0.35272	0.01422928
0.3528	0.01461275
0.35288	0.01525062
0.35296	0.01529862
0.35304	0.01531251
0.35312	0.01470839
0.3532	0.01337613
0.35328	0.01238021
0.35336	0.01161557
0.35344	0.01164915
0.35352	0.01184408
0.3536	0.01216515
0.35368	0.0115851
0.35376	0.01115837
0.35384	0.01072183
0.35392	0.01115155
0.354	0.01170313
0.35408	0.01136083
0.35416	0.01093323
0.35424	0.01148423
0.35432	0.01167004
0.3544	0.01162585
0.35448	0.01091722
0.35456	0.009476014
0.35464	0.008771178
0.35472	0.007794186
0.3548	0.007018994
0.35488	0.007107872
0.35496	0.007343884
0.35504	0.006901789
0.35512	0.006702852
0.3552	0.007096264
0.35528	0.007544747
0.35536	0.008120911
0.35544	0.008124164
0.35552	0.007328175
0.3556	0.0068499
0.35568	0.006729932
0.35576	0.006910938
0.35584	0.007222491
0.35592	0.007181649
0.356	0.006866968
0.35608	0.006368387
0.35616	0.005263465
0.35624	0.004312551
0.35632	0.004464919
0.3564	0.004562674
0.35648	0.003730389
0.35656	0.002942804
0.35664	0.00279456
0.35672	0.002253667
0.3568	0.001389854
0.35688	0.0004056018
0.35696	-0.0005687673
0.35704	-0.0006736934
0.35712	-0.0008765503
0.3572	-0.001288416
0.35728	-0.001950358
0.35736	-0.00230583
0.35744	-0.001977915
0.35752	-0.002182526
0.3576	-0.002989783
0.35768	-0.003048518
0.35776	-0.003525649
0.35784	-0.003652063
0.35792	-0.003780424
0.358	-0.00455788
0.35808	-0.004519789
0.35816	-0.004732765
0.35824	-0.005367787
0.35832	-0.005355223
0.3584	-0.005105215
0.35848	-0.004885987
0.35856	-0.004974744
0.35864	-0.005305964
0.35872	-0.006209225
0.3588	-0.006070166
0.35888	-0.006310401
0.35896	-0.007100423
0.35904	-0.007300969
0.35912	-0.00717042
0.3592	-0.00754092
0.35928	-0.008368748
0.35936	-0.008389774
0.35944	-0.008661165
0.35952	-0.008968739
0.3596	-0.009276109
0.35968	-0.01026049
0.35976	-0.01141234
0.35984	-0.01250006
0.35992	-0.0131506
0.36	-0.01321656
0.36008	-0.01321682
0.36016	-0.01322119
0.36024	-0.01309796
0.36032	-0.01380966
0.3604	-0.01469453
0.36048	-0.01573971
0.36056	-0.01646602
0.36064	-0.01658759
0.36072	-0.01609798
0.3608	-0.01613363
0.36088	-0.01680742
0.36096	-0.01678494
0.36104	-0.01645691
0.36112	-0.01668205
0.3612	-0.01734317
0.36128	-0.01815809
0.36136	-0.01863228
0.36144	-0.01864195
0.36152	-0.01917685
0.3616	-0.01925487
0.36168	-0.01892722
0.36176	-0.0185782
0.36184	-0.01883721
0.36192	-0.01914284
0.362	-0.01961459
0.36208	-0.01948574
0.36216	-0.01865875
0.36224	-0.01734093
0.36232	-0.01679355
0.3624	-0.01667509
0.36248	-0.01540553
0.36256	-0.01418643
0.36264	-0.01336039
0.36272	-0.01291705
0.3628	-0.0126641
0.36288	-0.0119833
0.36296	-0.01176262
0.36304	-0.01182567
0.36312	-0.01178331
0.3632	-0.01181581
0.36328	-0.01147937
0.36336	-0.01114675
0.36344	-0.01091703
0.36352	-0.01076558
0.3636	-0.0106898
0.36368	-0.01069465
0.36376	-0.0103374
0.36384	-0.009887271
0.36392	-0.01015938
0.364	-0.01026145
0.36408	-0.009914419
0.36416	-0.01021706
0.36424	-0.01016672
0.36432	-0.009803109
0.3644	-0.009610206
0.36448	-0.008966382
0.36456	-0.008795364
0.36464	-0.008162702
0.36472	-0.007109245
0.3648	-0.006163652
0.36488	-0.005889731
0.36496	-0.006016728
0.36504	-0.006038706
0.36512	-0.00648997
0.3652	-0.007717912
0.36528	-0.008615235
0.36536	-0.008279183
0.36544	-0.008110792
0.36552	-0.007805633
0.3656	-0.006188019
0.36568	-0.004813581
0.36576	-0.003508103
0.36584	-0.00250986
0.36592	-0.001976559
0.366	-0.001643955
0.36608	-0.001271564
0.36616	-0.0003887402
0.36624	0.0008197073
0.36632	0.001476641
0.3664	0.001803248
0.36648	0.002248544
0.36656	0.002289761
0.36664	0.002433635
0.36672	0.002712897
0.3668	0.003230183
0.36688	0.003235473
0.36696	0.002356763
0.36704	0.002055869
0.36712	0.002654426
0.3672	0.003336675
0.36728	0.003922855
0.36736	0.004328826
0.36744	0.004323934
0.36752	0.004289883
0.3676	0.004438041
0.36768	0.004308451
0.36776	0.00381614
0.36784	0.003471378
0.36792	0.003294921
0.368	0.003221597
0.36808	0.003483715
0.36816	0.003430542
0.36824	0.003627561
0.36832	0.004079152
0.3684	0.004336153
0.36848	0.005060426
0.36856	0.005119988
0.36864	0.005221771
0.36872	0.005555866
0.3688	0.006169023
0.36888	0.00674834
0.36896	0.007111484
0.36904	0.007329361
0.36912	0.007223732
0.3692	0.007799605
0.36928	0.008149549
0.36936	0.008788644
0.36944	0.009188062
0.36952	0.009321381
0.3696	0.009313452
0.36968	0.008858885
0.36976	0.009089712
0.36984	0.009538556
0.36992	0.009830668
0.37	0.009543717
0.37008	0.009937184
0.37016	0.0104539
0.37024	0.0102213
0.37032	0.009958392
0.3704	0.009821563
0.37048	0.01025703
0.37056	0.01058486
0.37064	0.01061334
0.37072	0.01117668
0.3708	0.01194024
0.37088	0.01227749
0.37096	0.01263967
0.37104	0.0133224
0.37112	0.01289731
0.3712	0.01275184
0.37128	0.01352844
0.37136	0.01377805
0.37144	0.01345544
0.37152	0.0130489
0.3716	0.01271848
0.37168	0.01253152
0.37176	0.01279491
0.37184	0.01243276
0.37192	0.01254921
0.372	0.01259653
0.37208	0.0126632
0.37216	0.01252272
0.37224	0.01217311
0.37232	0.01241512
0.3724	0.01281803
0.37248	0.01311291
0.37256	0.01310441
0.37264	0.01330772
0.37272	0.01404834
0.3728	0.01427323
0.37288	0.01429857
0.37296	0.01441035
0.37304	0.01379739
0.37312	0.01267603
0.3732	0.01228729
0.37328	0.01248346
0.37336	0.01245178
0.37344	0.01204592
0.37352	0.01123808
0.3736	0.01056846
0.37368	0.01056225
0.37376	0.01054588
0.37384	0.01029124
0.37392	0.01037497
0.374	0.01051587
0.37408	0.01101981
0.37416	0.01129577
0.37424	0.0114139
0.37432	0.01171276
0.3744	0.01206606
0.37448	0.01236974
0.37456	0.01171014
0.37464	0.01134572
0.37472	0.01154517
0.3748	0.01133849
0.37488	0.01099233
0.37496	0.01090223
0.37504	0.01076932
0.37512	0.01024741
0.3752	0.01050028
0.37528	0.01056096
0.37536	0.01056168
0.37544	0.01016141
0.37552	0.009219622
0.3756	0.008838818
0.37568	0.008831938
0.37576	0.008676016
0.37584	0.008196575
0.37592	0.007801639
0.376	0.007410693
0.37608	0.0071451
0.37616	0.007412794
0.37624	0.007934452
0.37632	0.00831795
0.3764	0.0079507
0.37648	0.007640014
0.37656	0.006824054
0.37664	0.005545641
0.37672	0.004712008
0.3768	0.004006
0.37688	0.003251872
0.37696	0.002899633
0.37704	0.002995553
0.37712	0.003023657
0.3772	0.003341851
0.37728	0.003996146
0.37736	0.0037781
0.37744	0.003570076
0.37752	0.003527716
0.3776	0.002925204
0.37768	0.002755346
0.37776	0.00236635
0.37784	0.001730108
0.37792	0.0008647406
0.378	-0.0001361818
0.37808	-0.0009110511
0.37816	-0.001323352
0.37824	-0.001455202
0.37832	-0.001373337
0.3784	-0.001902531
0.37848	-0.002473153
0.37856	-0.002573692
0.37864	-0.002966414
0.37872	-0.003876137
0.3788	-0.004901244
0.37888	-0.004669872
0.37896	-0.0047831
0.37904	-0.005429558
0.37912	-0.005811532
0.3792	-0.006567264
0.37928	-0.007001996
0.37936	-0.00712258
0.37944	-0.007358547
0.37952	-0.007376681
0.3796	-0.007522338
0.37968	-0.008628332
0.37976	-0.009491498
0.37984	-0.009910701
0.37992	-0.01035454
0.38	-0.01053255
0.38008	-0.01043877
0.38016	-0.01030719
0.38024	-0.009749997
0.38032	-0.008283826
0.3804	-0.007430528
0.38048	-0.00738685
0.38056	-0.007708508
0.38064	-0.008685065
0.38072	-0.009324213
0.3808	-0.00948449
0.38088	-0.009402166
0.38096	-0.009301282
0.38104	-0.009099105
0.38112	-0.009103689
0.3812	-0.009183592
0.38128	-0.009191218
0.38136	-0.00950977
0.38144	-0.01001595
0.38152	-0.01063054
0.3816	-0.01007813
0.38168	-0.009537405
0.38176	-0.00946591
0.38184	-0.009462226
0.38192	-0.01021487
0.382	-0.01083
0.38208	-0.01131612
0.38216	-0.01132306
0.38224	-0.011484
0.38232	-0.01101465
0.3824	-0.0111447
0.38248	-0.01169427
0.38256	-0.01199516
0.38264	-0.01212247
0.38272	-0.01261151
0.3828	-0.01278882
0.38288	-0.0128608
0.38296	-0.01335425
0.38304	-0.01340497
0.38312	-0.01364288
0.3832	-0.01383282
0.38328	-0.01422175
0.38336	-0.01415424
0.38344	-0.01352168
0.38352	-0.01392346
0.3836	-0.01502041
0.38368	-0.01560533
0.38376	-0.015794
0.38384	-0.0159782
0.38392	-0.0163929
0.384	-0.0166511
0.38408	-0.01681493
0.38416	-0.01720884
0.38424	-0.01731815
0.38432	-0.01724603
0.3844	-0.01627132
0.38448	-0.01505095
0.38456	-0.01512802
0.38464	-0.01608068
0.38472	-0.0170587
0.3848	-0.01759821
0.38488	-0.01768945
0.38496	-0.01716625
0.38504	-0.01655754
0.38512	-0.01624141
0.3852	-0.01627879
0.38528	-0.0159609
0.38536	-0.01564954
0.38544	-0.01539529
0.38552	-0.01463635
0.3856	-0.01401154
0.38568	-0.01353079
0.38576	-0.01337697
0.38584	-0.01301709
0.38592	-0.01240655
0.386	-0.01149706
0.38608	-0.01088264
0.38616	-0.01015755
0.38624	-0.009264451
0.38632	-0.008618171
0.3864	-0.007921963
0.38648	-0.007521524
0.38656	-0.00718413
0.38664	-0.006334146
0.38672	-0.004865293
0.3868	-0.003543518
0.38688	-0.003234017
0.38696	-0.00277556
0.38704	-0.001928643
0.38712	-0.001405121
0.3872	-0.001269784
0.38728	-0.0006773795
0.38736	-0.0006175747
0.38744	-0.000486753
0.38752	0.0002325216
0.3876	0.0006574934
0.38768	0.0008787573
0.38776	0.001046996
0.38784	0.001721367
0.38792	0.002777533
0.388	0.003168092
0.38808	0.002997326
0.38816	0.002875186
0.38824	0.002596978
0.38832	0.002517356
0.3884	0.0030743
0.38848	0.002872631
0.38856	0.002202464
0.38864	0.002705001
0.38872	0.003703157
0.3888	0.004353459
0.38888	0.004495805
0.38896	0.004066085
0.38904	0.003918046
0.38912	0.004080079
0.3892	0.004826397
0.38928	0.00623183
0.38936	0.007245424
0.38944	0.007590702
0.38952	0.007543216
0.3896	0.007872436
0.38968	0.008422536
0.38976	0.009715348
0.38984	0.01119039
0.38992	0.01193651
0.39	0.01227389
0.39008	0.0129744
0.39016	0.01370909
0.39024	0.0142931
0.39032	0.01472736
0.3904	0.01535849
0.39048	0.015827
0.39056	0.01624678
0.39064	0.01689328
0.39072	0.01698135
0.3908	0.01686727
0.39088	0.01629233
0.39096	0.01560457
0.39104	0.01521129
0.39112	0.01513998
0.3912	0.01524308
0.39128	0.01562085
0.39136	0.01615129
0.39144	0.01676874
0.39152	0.0167613
0.3916	0.01659465
0.39168	0.01583404
0.39176	0.01517765
0.39184	0.01432922
0.39192	0.0137285
0.392	0.0136773
0.39208	0.01348854
0.39216	0.01333694
0.39224	0.01305503
0.39232	0.01349286
0.3924	0.01309173
0.39248	0.01251647
0.39256	0.01224235
0.39264	0.01205261
0.39272	0.01174709
0.3928	0.01129341
0.39288	0.01152372
0.39296	0.01186722
0.39304	0.01234684
0.39312	0.01324712
0.3932	0.01361916
0.39328	0.01361586
0.39336	0.01342909
0.39344	0.01357528
0.39352	0.01354976
0.3936	0.01306867
0.39368	0.01207295
0.39376	0.01218496
0.39384	0.01310707
0.39392	0.01321709
0.394	0.01324254
0.39408	0.01358424
0.39416	0.01391567
0.39424	0.01352726
0.39432	0.01330057
0.3944	0.012714
0.39448	0.01173334
0.39456	0.01073206
0.39464	0.01036503
0.39472	0.01007299
0.3948	0.01014128
0.39488	0.0106563
0.39496	0.01070961
0.39504	0.0103845
0.39512	0.0099252
0.3952	0.009112744
0.39528	0.008387852
0.39536	0.007906055
0.39544	0.007900153
0.39552	0.00764263
0.3956	0.007814237
0.39568	0.007566363
0.39576	0.007771026
0.39584	0.007996805
0.39592	0.008010074
0.396	0.007701884
0.39608	0.007236494
0.39616	0.007475445
0.39624	0.007660504
0.39632	0.007462028
0.3964	0.007165717
0.39648	0.006757884
0.39656	0.005759356
0.39664	0.004627102
0.39672	0.003976382
0.3968	0.003765197
0.39688	0.003218856
0.39696	0.002675962
0.39704	0.002777225
0.39712	0.002753647
0.3972	0.003036848
0.39728	0.002605826
0.39736	0.002106056
0.39744	0.001602523
0.39752	0.0007778095
0.3976	2.8196e-5
0.39768	-0.0007512064
0.39776	-0.001300954
0.39784	-0.001706504
0.39792	-0.002199916
0.398	-0.002622139
0.39808	-0.002911673
0.39816	-0.003168712
0.39824	-0.003861441
0.39832	-0.004683168
0.3984	-0.005047968
0.39848	-0.005083723
0.39856	-0.00520753
0.39864	-0.005305189
0.39872	-0.005231096
0.3988	-0.005909642
0.39888	-0.006588858
0.39896	-0.006688151
0.39904	-0.00605819
0.39912	-0.006247875
0.3992	-0.006804738
0.39928	-0.007115458
0.39936	-0.007825133
0.39944	-0.008323845
0.39952	-0.007998358
0.3996	-0.008191652
0.39968	-0.008946338
0.39976	-0.009788825
0.39984	-0.01057633
0.39992	-0.01106021
0.4	-0.01134197
0.40008	-0.01202872
0.40016	-0.01253543
0.40024	-0.0130009
0.40032	-0.01334438
0.4004	-0.01352717
0.40048	-0.01367942
0.40056	-0.01413167
0.40064	-0.01456353
0.40072	-0.01502075
0.4008	-0.01568435
0.40088	-0.01579974
0.40096	-0.01600804
0.40104	-0.01618262
0.40112	-0.01577827
0.4012	-0.01542927
0.40128	-0.01488687
0.40136	-0.01437549
0.40144	-0.01420944
0.40152	-0.01419229
0.4016	-0.01420475
0.40168	-0.01434697
0.40176	-0.01453923
0.40184	-0.01491765
0.40192	-0.01513896
0.402	-0.01516589
0.40208	-0.01526185
0.40216	-0.01571341
0.40224	-0.01585275
0.40232	-0.01572177
0.4024	-0.01647014
0.40248	-0.01688101
0.40256	-0.01658448
0.40264	-0.01627919
0.40272	-0.0155633
0.4028	-0.01494745
0.40288	-0.01465325
0.40296	-0.01523977
0.40304	-0.0154608
0.40312	-0.01467271
0.4032	-0.01410414
0.40328	-0.01349445
0.40336	-0.01317668
0.40344	-0.0122974
0.40352	-0.01212779
0.4036	-0.01192433
0.40368	-0.01177579
0.40376	-0.01142915
0.40384	-0.01091404
0.40392	-0.01079161
0.404	-0.01033733
0.40408	-0.01032528
0.40416	-0.01082315
0.40424	-0.01101526
0.40432	-0.01098573
0.4044	-0.01072377
0.40448	-0.01044207
0.40456	-0.01016922
0.40464	-0.009816175
0.40472	-0.009355009
0.4048	-0.009076201
0.40488	-0.008706018
0.40496	-0.008284532
0.40504	-0.007957818
0.40512	-0.007594187
0.4052	-0.006798958
0.40528	-0.006097719
0.40536	-0.005183472
0.40544	-0.004569195
0.40552	-0.004140048
0.4056	-0.004041803
0.40568	-0.004312979
0.40576	-0.004693123
0.40584	-0.004859324
0.40592	-0.004669791
0.406	-0.00434396
0.40608	-0.003442496
0.40616	-0.00292094
0.40624	-0.002693888
0.40632	-0.002421794
0.4064	-0.001530546
0.40648	-0.000381897
0.40656	0.0001582481
0.40664	0.0008919829
0.40672	0.001189917
0.4068	0.0009405142
0.40688	0.0008713097
0.40696	0.0003543227
0.40704	0.0002026203
0.40712	0.0001000645
0.4072	-0.0001169848
0.40728	-0.0004847712
0.40736	-0.0007343772
0.40744	-0.0002315768
0.40752	0.0007072818
0.4076	0.001561527
0.40768	0.002082561
0.40776	0.002939543
0.40784	0.003610846
0.40792	0.00390758
0.408	0.004392403
0.40808	0.004948861
0.40816	0.005608209
0.40824	0.006538975
0.40832	0.00747024
0.4084	0.008150063
0.40848	0.008469145
0.40856	0.008704188
0.40864	0.008666413
0.40872	0.00854108
0.4088	0.00880229
0.40888	0.008749132
0.40896	0.008432276
0.40904	0.00854422
0.40912	0.008683998
0.4092	0.008596857
0.40928	0.008983194
0.40936	0.009666912
0.40944	0.00920852
0.40952	0.008571777
0.4096	0.008504346
0.40968	0.008923105
0.40976	0.009572103
0.40984	0.01039006
0.40992	0.01113878
0.41	0.01155028
0.41008	0.01173143
0.41016	0.01191471
0.41024	0.01243248
0.41032	0.01295971
0.4104	0.01390314
0.41048	0.01370312
0.41056	0.01273088
0.41064	0.012364
0.41072	0.01189642
0.4108	0.01226285
0.41088	0.01278333
0.41096	0.01277601
0.41104	0.01226081
0.41112	0.01240769
0.4112	0.0130093
0.41128	0.01320097
0.41136	0.01300143
0.41144	0.01230039
0.41152	0.01096752
0.4116	0.01005412
0.41168	0.009825826
0.41176	0.01004004
0.41184	0.01013845
0.41192	0.009978542
0.412	0.0102859
0.41208	0.01028164
0.41216	0.0100158
0.41224	0.009173067
0.41232	0.008914329
0.4124	0.009029194
0.41248	0.009404117
0.41256	0.01011726
0.41264	0.01066158
0.41272	0.01143728
0.4128	0.01175955
0.41288	0.01140457
0.41296	0.01123448
0.41304	0.01093733
0.41312	0.01033472
0.4132	0.009969618
0.41328	0.009179313
0.41336	0.008445201
0.41344	0.007841202
0.41352	0.008136771
0.4136	0.008499628
0.41368	0.00855428
0.41376	0.008745216
0.41384	0.008474477
0.41392	0.008282065
0.414	0.007771322
0.41408	0.007531073
0.41416	0.007915602
0.41424	0.008278618
0.41432	0.008532038
0.4144	0.008369968
0.41448	0.008375096
0.41456	0.008330845
0.41464	0.008327929
0.41472	0.008006377
0.4148	0.007735024
0.41488	0.007545972
0.41496	0.00739174
0.41504	0.007184672
0.41512	0.007077402
0.4152	0.006642697
0.41528	0.006312723
0.41536	0.00650066
0.41544	0.006534422
0.41552	0.006308971
0.4156	0.006346987
0.41568	0.006094356
0.41576	0.005756539
0.41584	0.006043416
0.41592	0.006119473
0.416	0.005312363
0.41608	0.003801728
0.41616	0.002721085
0.41624	0.002075691
0.41632	0.001433137
0.4164	0.001034427
0.41648	0.001401246
0.41656	0.001324444
0.41664	0.0009547877
0.41672	0.0005759553
0.4168	-0.0002539468
0.41688	-0.001254261
0.41696	-0.001221378
0.41704	-0.0007907473
0.41712	-0.001311414
0.4172	-0.001945319
0.41728	-0.002777401
0.41736	-0.002914039
0.41744	-0.002971329
0.41752	-0.002841747
0.4176	-0.002477784
0.41768	-0.002741828
0.41776	-0.003132
0.41784	-0.003126122
0.41792	-0.003369732
0.418	-0.003554736
0.41808	-0.002992946
0.41816	-0.003128308
0.41824	-0.003230413
0.41832	-0.003683763
0.4184	-0.003887349
0.41848	-0.003987697
0.41856	-0.003998036
0.41864	-0.003784117
0.41872	-0.004105738
0.4188	-0.004566128
0.41888	-0.004909134
0.41896	-0.00561327
0.41904	-0.005920545
0.41912	-0.006067256
0.4192	-0.006113505
0.41928	-0.0060138
0.41936	-0.00626353
0.41944	-0.006743859
0.41952	-0.007116152
0.4196	-0.007388784
0.41968	-0.007935197
0.41976	-0.008240648
0.41984	-0.008343247
0.41992	-0.007980867
0.42	-0.007967645
0.42008	-0.008262037
0.42016	-0.008251417
0.42024	-0.008520064
0.42032	-0.00839314
0.4204	-0.008489918
0.42048	-0.008941249
0.42056	-0.009251468
0.42064	-0.009489421
0.42072	-0.008861461
0.4208	-0.008609725
0.42088	-0.009127732
0.42096	-0.008885633
0.42104	-0.009091225
0.42112	-0.009851866
0.4212	-0.0110655
0.42128	-0.01196247
0.42136	-0.0118715
0.42144	-0.01172988
0.42152	-0.01165478
0.4216	-0.01165187
0.42168	-0.01150061
0.42176	-0.01184631
0.42184	-0.01278026
0.42192	-0.01249609
0.422	-0.01239436
0.42208	-0.01160668
0.42216	-0.01135078
0.42224	-0.01162801
0.42232	-0.01206778
0.4224	-0.01258731
0.42248	-0.01332103
0.42256	-0.01382053
0.42264	-0.01405408
0.42272	-0.01356803
0.4228	-0.01229928
0.42288	-0.01130044
0.42296	-0.0110214
0.42304	-0.01057185
0.42312	-0.01038036
0.4232	-0.01011218
0.42328	-0.009879232
0.42336	-0.009748842
0.42344	-0.009691793
0.42352	-0.00964638
0.4236	-0.01008102
0.42368	-0.01011827
0.42376	-0.01020147
0.42384	-0.01017746
0.42392	-0.0102869
0.424	-0.01046452
0.42408	-0.0102421
0.42416	-0.01076956
0.42424	-0.0110636
0.42432	-0.01063052
0.4244	-0.01049057
0.42448	-0.009854968
0.42456	-0.009266883
0.42464	-0.008752086
0.42472	-0.008986511
0.4248	-0.008727259
0.42488	-0.008012231
0.42496	-0.007771132
0.42504	-0.007901191
0.42512	-0.007787384
0.4252	-0.007760708
0.42528	-0.007712103
0.42536	-0.007730819
0.42544	-0.007962169
0.42552	-0.007600229
0.4256	-0.007166773
0.42568	-0.006652368
0.42576	-0.005961456
0.42584	-0.005254347
0.42592	-0.004509609
0.426	-0.004046432
0.42608	-0.002851352
0.42616	-0.001563897
0.42624	-0.0005906712
0.42632	0.0002893393
0.4264	0.001139669
0.42648	0.001836398
0.42656	0.001635197
0.42664	0.001258717
0.42672	0.001639684
0.4268	0.002232206
0.42688	0.003239792
0.42696	0.003973431
0.42704	0.004124378
0.42712	0.003934341
0.4272	0.00402682
0.42728	0.004139978
0.42736	0.004199833
0.42744	0.004794201
0.42752	0.005028643
0.4276	0.005442814
0.42768	0.005495859
0.42776	0.005273156
0.42784	0.00449621
0.42792	0.003713259
0.428	0.003024217
0.42808	0.001989699
0.42816	0.001604861
0.42824	0.002064741
0.42832	0.002482589
0.4284	0.003308957
0.42848	0.004025694
0.42856	0.003688354
0.42864	0.003390537
0.42872	0.00363935
0.4288	0.004374794
0.42888	0.004979535
0.42896	0.005178463
0.42904	0.005320374
0.42912	0.005772057
0.4292	0.006151673
0.42928	0.005978025
0.42936	0.006619562
0.42944	0.007167508
0.42952	0.007269522
0.4296	0.007072301
0.42968	0.006449406
0.42976	0.005605695
0.42984	0.005467378
0.42992	0.006058329
0.43	0.006685323
0.43008	0.007513295
0.43016	0.008118205
0.43024	0.008648759
0.43032	0.009274357
0.4304	0.00948419
0.43048	0.01000138
0.43056	0.01095224
0.43064	0.01203531
0.43072	0.01280089
0.4308	0.01326925
0.43088	0.01299813
0.43096	0.01354618
0.43104	0.01493897
0.43112	0.01567074
0.4312	0.01561075
0.43128	0.01501671
0.43136	0.01436274
0.43144	0.01376787
0.43152	0.01310227
0.4316	0.01304918
0.43168	0.01308396
0.43176	0.01297097
0.43184	0.01251888
0.43192	0.01263397
0.432	0.01296787
0.43208	0.01315329
0.43216	0.01274103
0.43224	0.0121679
0.43232	0.01206239
0.4324	0.01243659
0.43248	0.01217408
0.43256	0.01229609
0.43264	0.01338153
0.43272	0.01367198
0.4328	0.01364684
0.43288	0.01380517
0.43296	0.01416769
0.43304	0.01420102
0.43312	0.01379947
0.4332	0.01356119
0.43328	0.01354332
0.43336	0.01338361
0.43344	0.01357587
0.43352	0.01293215
0.4336	0.01249312
0.43368	0.01257982
0.43376	0.01219194
0.43384	0.01119443
0.43392	0.01123261
0.434	0.01080953
0.43408	0.01038584
0.43416	0.01003997
0.43424	0.01005616
0.43432	0.01031822
0.4344	0.01013424
0.43448	0.009853399
0.43456	0.01016981
0.43464	0.01072596
0.43472	0.01039963
0.4348	0.009739022
0.43488	0.009391484
0.43496	0.008443672
0.43504	0.00667545
0.43512	0.005590071
0.4352	0.004782127
0.43528	0.004197919
0.43536	0.003432735
0.43544	0.003368409
0.43552	0.003443246
0.4356	0.003272827
0.43568	0.003027667
0.43576	0.002682237
0.43584	0.002091184
0.43592	0.00154692
0.436	0.001199023
0.43608	0.0007466669
0.43616	0.0004131122
0.43624	0.0008972819
0.43632	0.001147728
0.4364	0.0007858062
0.43648	0.000642861
0.43656	0.0005200511
0.43664	0.0008809165
0.43672	0.0007935187
0.4368	0.0004794812
0.43688	0.0007643667
0.43696	0.001230187
0.43704	0.001136385
0.43712	0.0004051893
0.4372	-2.789243e-5
0.43728	-0.0003926639
0.43736	-0.0007242085
0.43744	-0.001641547
0.43752	-0.002457271
0.4376	-0.003409939
0.43768	-0.004750863
0.43776	-0.005254427
0.43784	-0.00574896
0.43792	-0.005803035
0.438	-0.005974127
0.43808	-0.006243903
0.43816	-0.006512964
0.43824	-0.00720785
0.43832	-0.007852077
0.4384	-0.007979843
0.43848	-0.007611458
0.43856	-0.007539733
0.43864	-0.007612044
0.43872	-0.008225366
0.4388	-0.008920013
0.43888	-0.01009232
0.43896	-0.01103885
0.43904	-0.011748
0.43912	-0.01314597
0.4392	-0.01389643
0.43928	-0.01410106
0.43936	-0.01348482
0.43944	-0.01263265
0.43952	-0.01212512
0.4396	-0.01182094
0.43968	-0.01180521
0.43976	-0.01125304
0.43984	-0.011338
0.43992	-0.01219555
0.44	-0.01294108
0.44008	-0.0133445
0.44016	-0.01369102
0.44024	-0.0137357
0.44032	-0.01435615
0.4404	-0.01546774
0.44048	-0.01561648
0.44056	-0.01526827
0.44064	-0.01477427
0.44072	-0.01471179
0.4408	-0.01479526
0.44088	-0.01448451
0.44096	-0.01436948
0.44104	-0.01473173
0.44112	-0.01479827
0.4412	-0.01526757
0.44128	-0.01497011
0.44136	-0.01492123
0.44144	-0.01470027
0.44152	-0.01488365
0.4416	-0.01530141
0.44168	-0.01515708
0.44176	-0.01407103
0.44184	-0.01402346
0.44192	-0.0144424
0.442	-0.015232
0.44208	-0.0156898
0.44216	-0.01580901
0.44224	-0.01636655
0.44232	-0.01652646
0.4424	-0.01603588
0.44248	-0.01569759
0.44256	-0.01501316
0.44264	-0.01465773
0.44272	-0.01486674
0.4428	-0.01573308
0.44288	-0.01637177
0.44296	-0.01636779
0.44304	-0.0158349
0.44312	-0.01526144
0.4432	-0.01459903
0.44328	-0.01412698
0.44336	-0.01291749
0.44344	-0.01224771
0.44352	-0.01164319
0.4436	-0.01033765
0.44368	-0.009626442
0.44376	-0.009191317
0.44384	-0.008530803
0.44392	-0.007780518
0.444	-0.007225607
0.44408	-0.007118163
0.44416	-0.00732056
0.44424	-0.007867808
0.44432	-0.007882725
0.4444	-0.008168029
0.44448	-0.008629935
0.44456	-0.009070094
0.44464	-0.00962521
0.44472	-0.009378606
0.4448	-0.009103981
0.44488	-0.00893546
0.44496	-0.008983641
0.44504	-0.00847902
0.44512	-0.008226572
0.4452	-0.008889941
0.44528	-0.00874758
0.44536	-0.00903755
0.44544	-0.009558609
0.44552	-0.009583924
0.4456	-0.009321537
0.44568	-0.008883795
0.44576	-0.008335222
0.44584	-0.00776737
0.44592	-0.007107655
0.446	-0.00649569
0.44608	-0.006635536
0.44616	-0.005945329
0.44624	-0.005473644
0.44632	-0.004410146
0.4464	-0.003421014
0.44648	-0.003172627
0.44656	-0.003148354
0.44664	-0.003548416
0.44672	-0.003274909
0.4468	-0.002547677
0.44688	-0.002108817
0.44696	-0.001933188
0.44704	-0.001828747
0.44712	-0.001490609
0.4472	-0.001344231
0.44728	-0.0005420269
0.44736	-0.000271503
0.44744	-0.0001807784
0.44752	-7.121528e-5
0.4476	0.0002782377
0.44768	0.0009263866
0.44776	0.001629556
0.44784	0.002835946
0.44792	0.003583763
0.448	0.004509036
0.44808	0.005451305
0.44816	0.006574591
0.44824	0.007556123
0.44832	0.007335442
0.4484	0.008127227
0.44848	0.008924802
0.44856	0.009419478
0.44864	0.01081326
0.44872	0.01134677
0.4488	0.01120753
0.44888	0.01114873
0.44896	0.0115196
0.44904	0.01138081
0.44912	0.0113108
0.4492	0.0114744
0.44928	0.01152465
0.44936	0.01121833
0.44944	0.01097411
0.44952	0.01108175
0.4496	0.01114241
0.44968	0.01214726
0.44976	0.01288183
0.44984	0.01340947
0.44992	0.01305703
0.45	0.01316702
0.45008	0.01371798
0.45016	0.01398301
0.45024	0.01410061
0.45032	0.01413176
0.4504	0.01335024
0.45048	0.01305851
0.45056	0.01321577
0.45064	0.01303451
0.45072	0.01309921
0.4508	0.01263041
0.45088	0.01275009
0.45096	0.01269809
0.45104	0.01249576
0.45112	0.01274729
0.4512	0.01280603
0.45128	0.01339071
0.45136	0.01391355
0.45144	0.01464126
0.45152	0.01500537
0.4516	0.01497503
0.45168	0.01474579
0.45176	0.01445279
0.45184	0.01487504
0.45192	0.0157348
0.452	0.01618885
0.45208	0.01628175
0.45216	0.01583676
0.45224	0.01571954
0.45232	0.01614776
0.4524	0.0163226
0.45248	0.01612991
0.45256	0.01612379
0.45264	0.01636601
0.45272	0.0166115
0.4528	0.01625854
0.45288	0.01606567
0.45296	0.0162033
0.45304	0.01584315
0.45312	0.01536192
0.4532	0.01481494
0.45328	0.01447098
0.45336	0.01397178
0.45344	0.01411248
0.45352	0.01340479
0.4536	0.0124928
0.45368	0.01178383
0.45376	0.01142843
0.45384	0.01136496
0.45392	0.01124456
0.454	0.01080528
0.45408	0.00975639
0.45416	0.008704792
0.45424	0.008019618
0.45432	0.007811864
0.4544	0.008337356
0.45448	0.008538008
0.45456	0.008634103
0.45464	0.007858519
0.45472	0.007418221
0.4548	0.007508384
0.45488	0.007423384
0.45496	0.007404454
0.45504	0.007148656
0.45512	0.00694675
0.4552	0.007066875
0.45528	0.006667022
0.45536	0.006602882
0.45544	0.006972344
0.45552	0.0073016
0.4556	0.007490952
0.45568	0.007919117
0.45576	0.007828313
0.45584	0.008079263
0.45592	0.008692012
0.456	0.008453552
0.45608	0.007788803
0.45616	0.007183956
0.45624	0.006996394
0.45632	0.006626667
0.4564	0.006202919
0.45648	0.005232075
0.45656	0.003922071
0.45664	0.003119736
0.45672	0.002336654
0.4568	0.001385163
0.45688	0.0009502
0.45696	0.00057902
0.45704	0.0001217066
0.45712	-9.207393e-5
0.4572	0.0001108224
0.45728	0.0001534153
0.45736	-3.413605e-5
0.45744	-0.000240863
0.45752	-0.0001936688
0.4576	-0.0001924362
0.45768	-0.0002574016
0.45776	-0.0006591621
0.45784	-0.0017128
0.45792	-0.002739922
0.458	-0.003308346
0.45808	-0.003416925
0.45816	-0.003549587
0.45824	-0.003397506
0.45832	-0.0031049
0.4584	-0.00355545
0.45848	-0.004055527
0.45856	-0.004015903
0.45864	-0.003302967
0.45872	-0.003300326
0.4588	-0.003165836
0.45888	-0.003428287
0.45896	-0.004160621
0.45904	-0.004830885
0.45912	-0.005830096
0.4592	-0.006292218
0.45928	-0.006679642
0.45936	-0.007277901
0.45944	-0.008113858
0.45952	-0.008965945
0.4596	-0.00913564
0.45968	-0.009095868
0.45976	-0.009434223
0.45984	-0.01035237
0.45992	-0.01133219
0.46	-0.01161559
0.46008	-0.01131364
0.46016	-0.01065726
0.46024	-0.01044421
0.46032	-0.01019111
0.4604	-0.01058463
0.46048	-0.0116059
0.46056	-0.01270944
0.46064	-0.01386234
0.46072	-0.01457798
0.4608	-0.01456312
0.46088	-0.01475006
0.46096	-0.014913
0.46104	-0.01495412
0.46112	-0.01470609
0.4612	-0.01445921
0.46128	-0.01479883
0.46136	-0.01537312
0.46144	-0.01627039
0.46152	-0.01756597
0.4616	-0.01828833
0.46168	-0.01897336
0.46176	-0.0191852
0.46184	-0.01876823
0.46192	-0.01798488
0.462	-0.01755617
0.46208	-0.01794949
0.46216	-0.01822682
0.46224	-0.0183587
0.46232	-0.01830754
0.4624	-0.01832381
0.46248	-0.01848533
0.46256	-0.01833395
0.46264	-0.01791029
0.46272	-0.01782396
0.4628	-0.01797054
0.46288	-0.01794758
0.46296	-0.01761375
0.46304	-0.01732816
0.46312	-0.01728913
0.4632	-0.01659257
0.46328	-0.01604356
0.46336	-0.01574934
0.46344	-0.01478203
0.46352	-0.0137804
0.4636	-0.01328769
0.46368	-0.01277162
0.46376	-0.01249072
0.46384	-0.01227232
0.46392	-0.01221519
0.464	-0.01208808
0.46408	-0.01165829
0.46416	-0.01178411
0.46424	-0.01190315
0.46432	-0.01212126
0.4644	-0.01203665
0.46448	-0.01192399
0.46456	-0.01213935
0.46464	-0.01240428
0.46472	-0.01296484
0.4648	-0.01277023
0.46488	-0.01206755
0.46496	-0.01234741
0.46504	-0.01251114
0.46512	-0.01230915
0.4652	-0.01217697
0.46528	-0.01237214
0.46536	-0.01228893
0.46544	-0.01176677
0.46552	-0.01117874
0.4656	-0.01058553
0.46568	-0.009752449
0.46576	-0.008160749
0.46584	-0.007383981
0.46592	-0.006101799
0.466	-0.005174276
0.46608	-0.004637448
0.46616	-0.003827229
0.46624	-0.00281629
0.46632	-0.001677257
0.4664	-0.0007207801
0.46648	-0.0002299861
0.46656	-9.282005e-5
0.46664	0.0002448924
0.46672	0.001068019
0.4668	0.001680637
0.46688	0.002155998
0.46696	0.002418939
0.46704	0.00265045
0.46712	0.003272052
0.4672	0.003653444
0.46728	0.004363266
0.46736	0.005364884
0.46744	0.006242624
0.46752	0.006810942
0.4676	0.007479996
0.46768	0.00859204
0.46776	0.008820855
0.46784	0.008327777
0.46792	0.008172431
0.468	0.008242699
0.46808	0.008430192
0.46816	0.008541305
0.46824	0.008233681
0.46832	0.00854066
0.4684	0.00886358
0.46848	0.009279403
0.46856	0.009329078
0.46864	0.009129686
0.46872	0.009626078
0.4688	0.01056036
0.46888	0.01116371
0.46896	0.0111292
0.46904	0.01077717
0.46912	0.01039881
0.4692	0.01136577
0.46928	0.01195115
0.46936	0.01250221
0.46944	0.01229298
0.46952	0.01243609
0.4696	0.01313713
0.46968	0.01358929
0.46976	0.01402182
0.46984	0.01368774
0.46992	0.01371266
0.47	0.01394448
0.47008	0.0140132
0.47016	0.01382181
0.47024	0.01394133
0.47032	0.01434371
0.4704	0.01482119
0.47048	0.01526513
0.47056	0.01592078
0.47064	0.01680909
0.47072	0.01719931
0.4708	0.01753249
0.47088	0.01761757
0.47096	0.01758387
0.47104	0.0175846
0.47112	0.01738614
0.4712	0.0170784
0.47128	0.01651695
0.47136	0.01604369
0.47144	0.0153496
0.47152	0.01454497
0.4716	0.01422379
0.47168	0.0144415
0.47176	0.01447034
0.47184	0.01441214
0.47192	0.01476589
0.472	0.01470262
0.47208	0.01528085
0.47216	0.01527699
0.47224	0.01489424
0.47232	0.01455353
0.4724	0.01379198
0.47248	0.01337035
0.47256	0.01288669
0.47264	0.01222801
0.47272	0.01199867
0.4728	0.01211702
0.47288	0.01150262
0.47296	0.0109944
0.47304	0.0105565
0.47312	0.00957988
0.4732	0.009175517
0.47328	0.009017024
0.47336	0.008930599
0.47344	0.008909765
0.47352	0.009118216
0.4736	0.009573048
0.47368	0.01000971
0.47376	0.009754224
0.47384	0.009470575
0.47392	0.009505969
0.474	0.009680954
0.47408	0.01040529
0.47416	0.01112744
0.47424	0.01129573
0.47432	0.01151726
0.4744	0.01121176
0.47448	0.01077882
0.47456	0.01051734
0.47464	0.01051542
0.47472	0.01079189
0.4748	0.0105109
0.47488	0.01018326
0.47496	0.01029211
0.47504	0.01107514
0.47512	0.01142359
0.4752	0.01153312
0.47528	0.01103337
0.47536	0.0104572
0.47544	0.01002231
0.47552	0.009317219
0.4756	0.008766457
0.47568	0.007850465
0.47576	0.00739573
0.47584	0.007232125
0.47592	0.007386747
0.476	0.0075216
0.47608	0.00749944
0.47616	0.007485145
0.47624	0.007377998
0.47632	0.006387598
0.4764	0.005344645
0.47648	0.005088989
0.47656	0.005221266
0.47664	0.005247026
0.47672	0.005774461
0.4768	0.006201795
0.47688	0.006388505
0.47696	0.005945643
0.47704	0.005546443
0.47712	0.005169849
0.4772	0.004948547
0.47728	0.004844504
0.47736	0.005200544
0.47744	0.004763397
0.47752	0.003624313
0.4776	0.002905309
0.47768	0.002340347
0.47776	0.002243719
0.47784	0.002250662
0.47792	0.002270375
0.478	0.001624506
0.47808	0.0007837337
0.47816	0.0008740748
0.47824	0.001895741
0.47832	0.002150168
0.4784	0.00147615
0.47848	0.0006389723
0.47856	-0.0008196075
0.47864	-0.001452535
0.47872	-0.001538885
0.4788	-0.001975401
0.47888	-0.002500761
0.47896	-0.002945114
0.47904	-0.003344398
0.47912	-0.004442663
0.4792	-0.005142566
0.47928	-0.00659363
0.47936	-0.007739982
0.47944	-0.008190335
0.47952	-0.008272368
0.4796	-0.008431152
0.47968	-0.009302579
0.47976	-0.01026134
0.47984	-0.01102528
0.47992	-0.01176627
0.48	-0.01234194
0.48008	-0.01262645
0.48016	-0.01310326
0.48024	-0.01422763
0.48032	-0.01488433
0.4804	-0.01488182
0.48048	-0.0146984
0.48056	-0.01509964
0.48064	-0.01550797
0.48072	-0.01651002
0.4808	-0.01698147
0.48088	-0.01738239
0.48096	-0.01731174
0.48104	-0.01680427
0.48112	-0.01697708
0.4812	-0.01668506
0.48128	-0.01636665
0.48136	-0.01627883
0.48144	-0.01642814
0.48152	-0.01659463
0.4816	-0.01636364
0.48168	-0.01656725
0.48176	-0.01653418
0.48184	-0.01697448
0.48192	-0.01763368
0.482	-0.01842336
0.48208	-0.01808979
0.48216	-0.01797292
0.48224	-0.01886379
0.48232	-0.01951685
0.4824	-0.01988811
0.48248	-0.01938565
0.48256	-0.01845437
0.48264	-0.01773666
0.48272	-0.01709046
0.4828	-0.01675071
0.48288	-0.01734702
0.48296	-0.01772494
0.48304	-0.01719224
0.48312	-0.0168375
0.4832	-0.01688141
0.48328	-0.01697964
0.48336	-0.01669975
0.48344	-0.01680685
0.48352	-0.01750879
0.4836	-0.0173982
0.48368	-0.01676942
0.48376	-0.01630544
0.48384	-0.01588515
0.48392	-0.01564425
0.484	-0.01516774
0.48408	-0.01493178
0.48416	-0.01494022
0.48424	-0.01486327
0.48432	-0.01429276
0.4844	-0.01402184
0.48448	-0.01336277
0.48456	-0.01246421
0.48464	-0.01152031
0.48472	-0.01066575
0.4848	-0.01015657
0.48488	-0.01045776
0.48496	-0.0104563
0.48504	-0.01053771
0.48512	-0.01165898
0.4852	-0.01295476
0.48528	-0.01363564
0.48536	-0.01363743
0.48544	-0.01357078
0.48552	-0.01289671
0.4856	-0.01226795
0.48568	-0.01139162
0.48576	-0.01092573
0.48584	-0.01031424
0.48592	-0.009393751
0.486	-0.009045097
0.48608	-0.008493998
0.48616	-0.007343921
0.48624	-0.006165877
0.48632	-0.005095586
0.4864	-0.004491357
0.48648	-0.003965135
0.48656	-0.003051027
0.48664	-0.002100281
0.48672	-0.001364232
0.4868	-0.0006212121
0.48688	-5.626816e-5
0.48696	-7.110188e-5
0.48704	7.728305e-5
0.48712	0.0006608752
0.4872	0.001236908
0.48728	0.001507308
0.48736	0.001996257
0.48744	0.002196752
0.48752	0.002071399
0.4876	0.002243377
0.48768	0.002391709
0.48776	0.002531667
0.48784	0.002787289
0.48792	0.00300868
0.488	0.003638007
0.48808	0.004780864
