Source File Name:	Scan
Signal:	Time - Ref1 Voltage - Samples

Time	Time Signal
[ s ]	[ V ]
0	-0.0159926
8e-5	-0.01637029
0.00016	-0.01646213
0.00024	-0.01667831
0.00032	-0.01645458
0.0004	-0.01628307
0.00048	-0.01661642
0.00056	-0.01663349
0.00064	-0.01721202
0.00072	-0.0174545
0.0008	-0.01662779
0.00088	-0.01557373
0.00096	-0.01468957
0.00104	-0.01440852
0.00112	-0.01445137
0.0012	-0.01464592
0.00128	-0.01503827
0.00136	-0.01545368
0.00144	-0.01627599
0.00152	-0.01715318
0.0016	-0.0173452
0.00168	-0.01716124
0.00176	-0.01707577
0.00184	-0.01654654
0.00192	-0.01601176
0.002	-0.01564586
0.00208	-0.01552349
0.00216	-0.01535517
0.00224	-0.01478841
0.00232	-0.01450991
0.0024	-0.01436699
0.00248	-0.01428495
0.00256	-0.01366487
0.00264	-0.01317673
0.00272	-0.01337634
0.0028	-0.01376885
0.00288	-0.01360664
0.00296	-0.01374788
0.00304	-0.01356793
0.00312	-0.0135727
0.0032	-0.01369885
0.00328	-0.01399669
0.00336	-0.01477226
0.00344	-0.0147852
0.00352	-0.01479374
0.0036	-0.01491879
0.00368	-0.01501871
0.00376	-0.01473142
0.00384	-0.01391358
0.00392	-0.0132669
0.004	-0.01296445
0.00408	-0.01257671
0.00416	-0.01218689
0.00424	-0.0114882
0.00432	-0.01134902
0.0044	-0.01148859
0.00448	-0.01129624
0.00456	-0.0109845
0.00464	-0.01057721
0.00472	-0.01035823
0.0048	-0.009855159
0.00488	-0.008864421
0.00496	-0.007426925
0.00504	-0.006736171
0.00512	-0.00622644
0.0052	-0.005665987
0.00528	-0.005297656
0.00536	-0.004582793
0.00544	-0.00343986
0.00552	-0.002550907
0.0056	-0.002248005
0.00568	-0.001609981
0.00576	-0.0008718152
0.00584	-0.0004814933
0.00592	0.0004911735
0.006	0.001232245
0.00608	0.001564568
0.00616	0.002438834
0.00624	0.003057071
0.00632	0.003512454
0.0064	0.004009584
0.00648	0.004271466
0.00656	0.003885578
0.00664	0.003176752
0.00672	0.00296978
0.0068	0.00344291
0.00688	0.004452049
0.00696	0.005649691
0.00704	0.006564754
0.00712	0.006887903
0.0072	0.007496248
0.00728	0.008687107
0.00736	0.009479296
0.00744	0.009240572
0.00752	0.008636223
0.0076	0.00773894
0.00768	0.006985205
0.00776	0.00744272
0.00784	0.008136847
0.00792	0.008501539
0.008	0.008605314
0.00808	0.009014159
0.00816	0.009633826
0.00824	0.009000175
0.00832	0.007860595
0.0084	0.007530478
0.00848	0.007912875
0.00856	0.008963988
0.00864	0.009726794
0.00872	0.01013184
0.0088	0.01085469
0.00888	0.01117452
0.00896	0.01161302
0.00904	0.01219239
0.00912	0.01293198
0.0092	0.01351717
0.00928	0.01507534
0.00936	0.0159064
0.00944	0.0155762
0.00952	0.0150911
0.0096	0.01460966
0.00968	0.01478192
0.00976	0.01535906
0.00984	0.01599869
0.00992	0.01542358
0.01	0.01489787
0.01008	0.01454587
0.01016	0.01546908
0.01024	0.01567332
0.01032	0.01571438
0.0104	0.01592041
0.01048	0.01618179
0.01056	0.01621505
0.01064	0.01670753
0.01072	0.01668618
0.0108	0.01621338
0.01088	0.01602856
0.01096	0.01596903
0.01104	0.01563871
0.01112	0.01496594
0.0112	0.01500297
0.01128	0.01468018
0.01136	0.0144202
0.01144	0.01468989
0.01152	0.01535126
0.0116	0.01651823
0.01168	0.01731762
0.01176	0.01760959
0.01184	0.01792235
0.01192	0.01751595
0.012	0.0174054
0.01208	0.01728977
0.01216	0.01741752
0.01224	0.01767099
0.01232	0.01815782
0.0124	0.01858973
0.01248	0.0188459
0.01256	0.01902771
0.01264	0.01945715
0.01272	0.01957856
0.0128	0.01941195
0.01288	0.01957857
0.01296	0.0194064
0.01304	0.0195515
0.01312	0.01967283
0.0132	0.0193241
0.01328	0.0186013
0.01336	0.01841103
0.01344	0.01791799
0.01352	0.01775988
0.0136	0.01757637
0.01368	0.01663575
0.01376	0.01650477
0.01384	0.01640068
0.01392	0.01574527
0.014	0.01526642
0.01408	0.01444739
0.01416	0.01339516
0.01424	0.01280682
0.01432	0.01265776
0.0144	0.01304372
0.01448	0.0131081
0.01456	0.01267447
0.01464	0.01148055
0.01472	0.01067538
0.0148	0.01037414
0.01488	0.009944575
0.01496	0.008835966
0.01504	0.007882249
0.01512	0.007621369
0.0152	0.007395932
0.01528	0.006883417
0.01536	0.00629182
0.01544	0.006325819
0.01552	0.006908214
0.0156	0.00699989
0.01568	0.005921758
0.01576	0.005020478
0.01584	0.005092752
0.01592	0.004762293
0.016	0.00454327
0.01608	0.004048685
0.01616	0.003055608
0.01624	0.002285602
0.01632	0.001469085
0.0164	0.0008183468
0.01648	0.0003970755
0.01656	-0.0003004061
0.01664	-0.001002811
0.01672	-0.001883086
0.0168	-0.002892845
0.01688	-0.00310649
0.01696	-0.003289984
0.01704	-0.00358388
0.01712	-0.003890167
0.0172	-0.004634053
0.01728	-0.004975639
0.01736	-0.005404605
0.01744	-0.005978475
0.01752	-0.006688009
0.0176	-0.007920401
0.01768	-0.008810163
0.01776	-0.01002048
0.01784	-0.01061915
0.01792	-0.01074106
0.018	-0.01073763
0.01808	-0.01059847
0.01816	-0.01017979
0.01824	-0.01020665
0.01832	-0.01044924
0.0184	-0.0103416
0.01848	-0.009476079
0.01856	-0.008751572
0.01864	-0.008234459
0.01872	-0.007976927
0.0188	-0.008065665
0.01888	-0.008142531
0.01896	-0.007898467
0.01904	-0.008448171
0.01912	-0.01015644
0.0192	-0.0109266
0.01928	-0.01134272
0.01936	-0.01183355
0.01944	-0.01309575
0.01952	-0.01388084
0.0196	-0.01402279
0.01968	-0.01443865
0.01976	-0.01552611
0.01984	-0.01629462
0.01992	-0.01627558
0.02	-0.01669166
0.02008	-0.0176033
0.02016	-0.01785807
0.02024	-0.01757199
0.02032	-0.01794496
0.0204	-0.01833031
0.02048	-0.01860513
0.02056	-0.0189052
0.02064	-0.01930269
0.02072	-0.01994765
0.0208	-0.02091994
0.02088	-0.02093178
0.02096	-0.02032098
0.02104	-0.02023759
0.02112	-0.02026389
0.0212	-0.01981218
0.02128	-0.01982918
0.02136	-0.02001085
0.02144	-0.01998594
0.02152	-0.02047681
0.0216	-0.02050256
0.02168	-0.0195859
0.02176	-0.019089
0.02184	-0.01835852
0.02192	-0.01837423
0.022	-0.01883017
0.02208	-0.01896701
0.02216	-0.01916222
0.02224	-0.01940331
0.02232	-0.01971937
0.0224	-0.01951148
0.02248	-0.0189283
0.02256	-0.01815358
0.02264	-0.01715608
0.02272	-0.01700708
0.0228	-0.01688483
0.02288	-0.01649957
0.02296	-0.01613432
0.02304	-0.01620692
0.02312	-0.01600987
0.0232	-0.01616161
0.02328	-0.01663682
0.02336	-0.01643174
0.02344	-0.01594053
0.02352	-0.01506122
0.0236	-0.01434062
0.02368	-0.01311901
0.02376	-0.012464
0.02384	-0.01236952
0.02392	-0.01206526
0.024	-0.01122797
0.02408	-0.01047129
0.02416	-0.01077143
0.02424	-0.01118353
0.02432	-0.01099442
0.0244	-0.01047929
0.02448	-0.01036575
0.02456	-0.009915165
0.02464	-0.009168649
0.02472	-0.008588524
0.0248	-0.007732943
0.02488	-0.00660368
0.02496	-0.005844414
0.02504	-0.005608144
0.02512	-0.005006744
0.0252	-0.004561861
0.02528	-0.004214685
0.02536	-0.003653565
0.02544	-0.003032157
0.02552	-0.002310121
0.0256	-0.001575099
0.02568	-0.001330175
0.02576	-0.0006552684
0.02584	-0.0002623259
0.02592	-5.583242e-5
0.026	6.748965e-5
0.02608	0.0007079999
0.02616	0.001311132
0.02624	0.00176457
0.02632	0.001457043
0.0264	0.001373896
0.02648	0.00186477
0.02656	0.001592172
0.02664	0.001600568
0.02672	0.00177935
0.0268	0.002420116
0.02688	0.003247832
0.02696	0.004176414
0.02704	0.004952152
0.02712	0.00538565
0.0272	0.005459723
0.02728	0.005018121
0.02736	0.005040767
0.02744	0.005197419
0.02752	0.005864991
0.0276	0.005904927
0.02768	0.005642735
0.02776	0.005917939
0.02784	0.007026765
0.02792	0.008146494
0.028	0.00871778
0.02808	0.008649627
0.02816	0.008633765
0.02824	0.009409877
0.02832	0.01023041
0.0284	0.01027144
0.02848	0.01103196
0.02856	0.0122996
0.02864	0.01269632
0.02872	0.01304811
0.0288	0.01308904
0.02888	0.01337825
0.02896	0.0136231
0.02904	0.01324469
0.02912	0.01336132
0.0292	0.01391021
0.02928	0.01464012
0.02936	0.01468315
0.02944	0.01400399
0.02952	0.01422965
0.0296	0.01487663
0.02968	0.01572754
0.02976	0.01644791
0.02984	0.01652716
0.02992	0.01666368
0.03	0.01610041
0.03008	0.01494498
0.03016	0.01480652
0.03024	0.01520419
0.03032	0.01602539
0.0304	0.01635179
0.03048	0.01627998
0.03056	0.016584
0.03064	0.01650539
0.03072	0.01629665
0.0308	0.01608668
0.03088	0.01645573
0.03096	0.01722511
0.03104	0.01814592
0.03112	0.01834131
0.0312	0.0183376
0.03128	0.01833212
0.03136	0.01911476
0.03144	0.01887374
0.03152	0.01830408
0.0316	0.01802011
0.03168	0.01733439
0.03176	0.01675035
0.03184	0.016809
0.03192	0.01697575
0.032	0.01691335
0.03208	0.01687825
0.03216	0.01709978
0.03224	0.01685771
0.03232	0.01672105
0.0324	0.01689596
0.03248	0.01635099
0.03256	0.01501214
0.03264	0.01402484
0.03272	0.01364355
0.0328	0.01398287
0.03288	0.01396002
0.03296	0.01329197
0.03304	0.01265952
0.03312	0.01176009
0.0332	0.01091363
0.03328	0.01082121
0.03336	0.01046261
0.03344	0.009937247
0.03352	0.009642718
0.0336	0.0102232
0.03368	0.01048696
0.03376	0.009872993
0.03384	0.009491813
0.03392	0.009106266
0.034	0.008794908
0.03408	0.008755704
0.03416	0.00868237
0.03424	0.008232425
0.03432	0.007956413
0.0344	0.00786336
0.03448	0.007615675
0.03456	0.006945962
0.03464	0.006483199
0.03472	0.005721131
0.0348	0.005558673
0.03488	0.005479601
0.03496	0.005174493
0.03504	0.004760384
0.03512	0.003768057
0.0352	0.002424736
0.03528	0.0008226499
0.03536	0.0001498394
0.03544	0.0003427379
0.03552	0.0007517244
0.0356	0.0009815642
0.03568	0.0005504629
0.03576	0.0002762536
0.03584	-0.0001908063
0.03592	1.736545e-5
0.036	0.0001086762
0.03608	0.0003307432
0.03616	0.0002432313
0.03624	0.0001478913
0.03632	-4.752442e-5
0.0364	0.0001420099
0.03648	0.0007066538
0.03656	0.0002565764
0.03664	-0.0006396205
0.03672	-0.001701347
0.0368	-0.002187715
0.03688	-0.002888531
0.03696	-0.003595746
0.03704	-0.003845996
0.03712	-0.004162418
0.0372	-0.004732521
0.03728	-0.005520312
0.03736	-0.006763463
0.03744	-0.007271141
0.03752	-0.007207934
0.0376	-0.007559668
0.03768	-0.008301821
0.03776	-0.009101932
0.03784	-0.009278405
0.03792	-0.008962353
0.038	-0.00842588
0.03808	-0.008805631
0.03816	-0.00920357
0.03824	-0.009778081
0.03832	-0.01027888
0.0384	-0.01081274
0.03848	-0.01117309
0.03856	-0.01100218
0.03864	-0.01113927
0.03872	-0.01147696
0.0388	-0.0112558
0.03888	-0.01121016
0.03896	-0.01179624
0.03904	-0.01264895
0.03912	-0.0132789
0.0392	-0.01304262
0.03928	-0.01287084
0.03936	-0.01324693
0.03944	-0.01312513
0.03952	-0.01317614
0.0396	-0.01312999
0.03968	-0.01362129
0.03976	-0.01419797
0.03984	-0.01407673
0.03992	-0.01389809
0.04	-0.01370061
0.04008	-0.01402377
0.04016	-0.01405889
0.04024	-0.01327319
0.04032	-0.01278399
0.0404	-0.01293724
0.04048	-0.01318142
0.04056	-0.01366291
0.04064	-0.01340259
0.04072	-0.01278159
0.0408	-0.01230354
0.04088	-0.01276669
0.04096	-0.0126731
0.04104	-0.01192497
0.04112	-0.01132241
0.0412	-0.01064674
0.04128	-0.01023824
0.04136	-0.009618462
0.04144	-0.009295364
0.04152	-0.009350551
0.0416	-0.008694664
0.04168	-0.007658391
0.04176	-0.006527031
0.04184	-0.006288539
0.04192	-0.006853474
0.042	-0.006895126
0.04208	-0.006871079
0.04216	-0.006585282
0.04224	-0.006825611
0.04232	-0.007680471
0.0424	-0.008907218
0.04248	-0.008875577
0.04256	-0.008080162
0.04264	-0.007770362
0.04272	-0.007809786
0.0428	-0.008115686
0.04288	-0.008166447
0.04296	-0.008623214
0.04304	-0.008876182
0.04312	-0.008642255
0.0432	-0.008435768
0.04328	-0.007711841
0.04336	-0.007370216
0.04344	-0.007220938
0.04352	-0.007583088
0.0436	-0.007773837
0.04368	-0.007962748
0.04376	-0.008252352
0.04384	-0.00890277
0.04392	-0.009705122
0.044	-0.00932125
0.04408	-0.008146946
0.04416	-0.007604097
0.04424	-0.007861785
0.04432	-0.008176532
0.0444	-0.008008484
0.04448	-0.008098672
0.04456	-0.0084691
0.04464	-0.008295305
0.04472	-0.007669444
0.0448	-0.007156596
0.04488	-0.006513461
0.04496	-0.006157632
0.04504	-0.006505618
0.04512	-0.006794165
0.0452	-0.007115306
0.04528	-0.006227396
0.04536	-0.00531942
0.04544	-0.005752112
0.04552	-0.005901964
0.0456	-0.005853585
0.04568	-0.005727359
0.04576	-0.004966427
0.04584	-0.004470508
0.04592	-0.004120714
0.046	-0.003866321
0.04608	-0.003842022
0.04616	-0.003235032
0.04624	-0.002547711
0.04632	-0.002731474
0.0464	-0.002370735
0.04648	-0.001879427
0.04656	-0.001639372
0.04664	-0.001641263
0.04672	-0.001497992
0.0468	-0.0006346808
0.04688	-0.0002453263
0.04696	-0.0006188017
0.04704	-0.0008246172
0.04712	-0.0002138227
0.0472	0.0003043138
0.04728	0.0003661366
0.04736	0.0004247553
0.04744	0.0004623698
0.04752	0.0009612861
0.0476	0.001658162
0.04768	0.002431463
0.04776	0.002689863
0.04784	0.002486345
0.04792	0.002582033
0.048	0.003249479
0.04808	0.004410891
0.04816	0.005560854
0.04824	0.006801568
0.04832	0.00685041
0.0484	0.007272003
0.04848	0.008046693
0.04856	0.009081172
0.04864	0.009759186
0.04872	0.009942582
0.0488	0.01000804
0.04888	0.01080929
0.04896	0.01222001
0.04904	0.013565
0.04912	0.01399418
0.0492	0.01363189
0.04928	0.01302634
0.04936	0.01314804
0.04944	0.01381845
0.04952	0.01421456
0.0496	0.01427939
0.04968	0.01386841
0.04976	0.01325607
0.04984	0.01270412
0.04992	0.01252939
0.05	0.01259389
0.05008	0.01276063
0.05016	0.01217577
0.05024	0.01195972
0.05032	0.01194904
0.0504	0.01224918
0.05048	0.01258651
0.05056	0.01247426
0.05064	0.01225897
0.05072	0.01266384
0.0508	0.01344705
0.05088	0.01348652
0.05096	0.01293971
0.05104	0.0124073
0.05112	0.01196623
0.0512	0.01091034
0.05128	0.01049322
0.05136	0.01066114
0.05144	0.01086877
0.05152	0.0114578
0.0516	0.01177363
0.05168	0.01235558
0.05176	0.01184299
0.05184	0.01096899
0.05192	0.01045282
0.052	0.01091795
0.05208	0.01214178
0.05216	0.01258795
0.05224	0.01206437
0.05232	0.01191465
0.0524	0.01130549
0.05248	0.01133033
0.05256	0.01197845
0.05264	0.01172268
0.05272	0.01090438
0.0528	0.01089859
0.05288	0.01119938
0.05296	0.01185989
0.05304	0.01214732
0.05312	0.0121005
0.0532	0.01238152
0.05328	0.01258065
0.05336	0.01247391
0.05344	0.01177447
0.05352	0.0117624
0.0536	0.0123691
0.05368	0.01265822
0.05376	0.01153705
0.05384	0.01016927
0.05392	0.009087846
0.054	0.008171938
0.05408	0.008016819
0.05416	0.007995165
0.05424	0.007534327
0.05432	0.006939911
0.0544	0.005994068
0.05448	0.005360584
0.05456	0.00489603
0.05464	0.004730833
0.05472	0.004160945
0.0548	0.003666345
0.05488	0.003832098
0.05496	0.003999134
0.05504	0.00341034
0.05512	0.002981893
0.0552	0.002779153
0.05528	0.002447346
0.05536	0.00189856
0.05544	0.001101287
0.05552	0.0005621121
0.0556	0.0004052156
0.05568	0.0005198862
0.05576	0.0004268086
0.05584	0.0004976946
0.05592	-0.0003006515
0.056	-0.001386454
0.05608	-0.001905716
0.05616	-0.001702826
0.05624	-0.001862719
0.05632	-0.002533592
0.0564	-0.002509807
0.05648	-0.002559756
0.05656	-0.002794576
0.05664	-0.003364629
0.05672	-0.003937126
0.0568	-0.004848739
0.05688	-0.005801131
0.05696	-0.006512822
0.05704	-0.006771222
0.05712	-0.006864069
0.0572	-0.006871969
0.05728	-0.007521536
0.05736	-0.008101764
0.05744	-0.008524737
0.05752	-0.008783946
0.0576	-0.009159404
0.05768	-0.01011122
0.05776	-0.01072597
0.05784	-0.0104411
0.05792	-0.01050213
0.058	-0.01095715
0.05808	-0.01113671
0.05816	-0.01091135
0.05824	-0.01001085
0.05832	-0.009205134
0.0584	-0.009396052
0.05848	-0.009680166
0.05856	-0.009994064
0.05864	-0.0106532
0.05872	-0.01129669
0.0588	-0.01182126
0.05888	-0.01200768
0.05896	-0.0125688
0.05904	-0.01383659
0.05912	-0.0142901
0.0592	-0.01458864
0.05928	-0.01481459
0.05936	-0.014574
0.05944	-0.0136049
0.05952	-0.01321225
0.0596	-0.01416019
0.05968	-0.01472025
0.05976	-0.01449034
0.05984	-0.01427987
0.05992	-0.01450981
0.06	-0.01476177
0.06008	-0.01469247
0.06016	-0.01474252
0.06024	-0.01472841
0.06032	-0.01412053
0.0604	-0.0137303
0.06048	-0.01353982
0.06056	-0.01331114
0.06064	-0.0135437
0.06072	-0.01396987
0.0608	-0.01453571
0.06088	-0.01550372
0.06096	-0.01572268
0.06104	-0.01561323
0.06112	-0.01552091
0.0612	-0.01566458
0.06128	-0.01574171
0.06136	-0.01550367
0.06144	-0.015248
0.06152	-0.01502822
0.0616	-0.01478339
0.06168	-0.01492405
0.06176	-0.01510552
0.06184	-0.0152703
0.06192	-0.01586325
0.062	-0.01690353
0.06208	-0.01685123
0.06216	-0.01644577
0.06224	-0.01651701
0.06232	-0.01627109
0.0624	-0.01623387
0.06248	-0.01616963
0.06256	-0.01593233
0.06264	-0.01579889
0.06272	-0.0160888
0.0628	-0.01568627
0.06288	-0.01563662
0.06296	-0.01590133
0.06304	-0.01539713
0.06312	-0.015162
0.0632	-0.01473063
0.06328	-0.0144881
0.06336	-0.01433233
0.06344	-0.01329929
0.06352	-0.01254723
0.0636	-0.01235405
0.06368	-0.01201517
0.06376	-0.0115432
0.06384	-0.01093492
0.06392	-0.01057187
0.064	-0.0103254
0.06408	-0.009596445
0.06416	-0.008799793
0.06424	-0.008567322
0.06432	-0.008290017
0.0644	-0.008111434
0.06448	-0.007901023
0.06456	-0.008194181
0.06464	-0.008152544
0.06472	-0.008304973
0.0648	-0.008314311
0.06488	-0.007894576
0.06496	-0.007471716
0.06504	-0.00690101
0.06512	-0.00618355
0.0652	-0.00561783
0.06528	-0.005002459
0.06536	-0.00461028
0.06544	-0.00458364
0.06552	-0.003778324
0.0656	-0.003481121
0.06568	-0.003201579
0.06576	-0.002846804
0.06584	-0.002050031
0.06592	-0.001407452
0.066	-0.0006514961
0.06608	0.0004253668
0.06616	0.001805526
0.06624	0.002868024
0.06632	0.003683913
0.0664	0.004362035
0.06648	0.005322522
0.06656	0.006133192
0.06664	0.00662654
0.06672	0.006871791
0.0668	0.006488622
0.06688	0.006362806
0.06696	0.006231375
0.06704	0.006023775
0.06712	0.005938946
0.0672	0.006388888
0.06728	0.006626931
0.06736	0.006888894
0.06744	0.007139594
0.06752	0.006704143
0.0676	0.006782469
0.06768	0.007723338
0.06776	0.008999685
0.06784	0.009437031
0.06792	0.008826423
0.068	0.008501785
0.06808	0.008596639
0.06816	0.008499734
0.06824	0.008162316
0.06832	0.008351745
0.0684	0.009544215
0.06848	0.01047806
0.06856	0.01131428
0.06864	0.01215364
0.06872	0.01235139
0.0688	0.01260605
0.06888	0.01316397
0.06896	0.01358485
0.06904	0.01443644
0.06912	0.01521498
0.0692	0.01532608
0.06928	0.01535032
0.06936	0.01494379
0.06944	0.01517462
0.06952	0.01605313
0.0696	0.01676149
0.06968	0.01716276
0.06976	0.01654074
0.06984	0.0162964
0.06992	0.01630889
0.07	0.0165171
0.07008	0.01643153
0.07016	0.01631349
0.07024	0.01668112
0.07032	0.01736347
0.0704	0.01807078
0.07048	0.01817851
0.07056	0.01758552
0.07064	0.01707222
0.07072	0.01703518
0.0708	0.01710657
0.07088	0.01685233
0.07096	0.01634522
0.07104	0.01633414
0.07112	0.01627027
0.0712	0.01667541
0.07128	0.01720614
0.07136	0.01651951
0.07144	0.0156387
0.07152	0.01514379
0.0716	0.01422697
0.07168	0.01392058
0.07176	0.01389606
0.07184	0.01361768
0.07192	0.01373418
0.072	0.01471322
0.07208	0.015389
0.07216	0.01547315
0.07224	0.01607656
0.07232	0.01546051
0.0724	0.01426527
0.07248	0.01352031
0.07256	0.01366968
0.07264	0.01399386
0.07272	0.01414011
0.0728	0.01471185
0.07288	0.01463908
0.07296	0.01456911
0.07304	0.01462964
0.07312	0.01449034
0.0732	0.01423714
0.07328	0.01374587
0.07336	0.01350085
0.07344	0.01359054
0.07352	0.01295622
0.0736	0.01266608
0.07368	0.01283227
0.07376	0.01346627
0.07384	0.01377587
0.07392	0.01356544
0.074	0.0133826
0.07408	0.01277202
0.07416	0.01252788
0.07424	0.01257422
0.07432	0.01249777
0.0744	0.01198055
0.07448	0.01176369
0.07456	0.01168696
0.07464	0.01118026
0.07472	0.01073627
0.0748	0.01001802
0.07488	0.01005844
0.07496	0.01086439
0.07504	0.0112564
0.07512	0.01072141
0.0752	0.009522143
0.07528	0.009330944
0.07536	0.009522657
0.07544	0.009362618
0.07552	0.009010568
0.0756	0.009414209
0.07568	0.009785864
0.07576	0.009249285
0.07584	0.00920971
0.07592	0.009272965
0.076	0.009059227
0.07608	0.008338787
0.07616	0.007518154
0.07624	0.006625894
0.07632	0.005833291
0.0764	0.005165154
0.07648	0.004176354
0.07656	0.002695685
0.07664	0.001343734
0.07672	0.0007755427
0.0768	0.000632575
0.07688	0.0003669589
0.07696	1.83427e-5
0.07704	-8.863958e-5
0.07712	-0.0007529869
0.0772	-0.001330728
0.07728	-0.00139511
0.07736	-0.001945249
0.07744	-0.002877017
0.07752	-0.004002206
0.0776	-0.005313236
0.07768	-0.005871707
0.07776	-0.00612722
0.07784	-0.006441021
0.07792	-0.006220439
0.078	-0.006171767
0.07808	-0.006596948
0.07816	-0.006726082
0.07824	-0.006164608
0.07832	-0.006234753
0.0784	-0.006646939
0.07848	-0.007184885
0.07856	-0.007446394
0.07864	-0.007306552
0.07872	-0.007515059
0.0788	-0.00770158
0.07888	-0.007906528
0.07896	-0.008017456
0.07904	-0.008225322
0.07912	-0.008793893
0.0792	-0.009334754
0.07928	-0.009709368
0.07936	-0.01034953
0.07944	-0.01126265
0.07952	-0.01203942
0.0796	-0.01273365
0.07968	-0.01320686
0.07976	-0.01331541
0.07984	-0.01299391
0.07992	-0.01351262
0.08	-0.01337616
0.08008	-0.01319528
0.08016	-0.01374332
0.08024	-0.01441022
0.08032	-0.01455218
0.0804	-0.0149416
0.08048	-0.01577518
0.08056	-0.01608351
0.08064	-0.01606117
0.08072	-0.01586664
0.0808	-0.01544557
0.08088	-0.01566838
0.08096	-0.01628384
0.08104	-0.01716072
0.08112	-0.01838394
0.0812	-0.01921723
0.08128	-0.01990541
0.08136	-0.01986353
0.08144	-0.01929352
0.08152	-0.01850546
0.0816	-0.01787624
0.08168	-0.01695704
0.08176	-0.01607859
0.08184	-0.01577753
0.08192	-0.0156791
0.082	-0.01593632
0.08208	-0.0168098
0.08216	-0.01719446
0.08224	-0.01794218
0.08232	-0.01793929
0.0824	-0.01744482
0.08248	-0.01715151
0.08256	-0.01636109
0.08264	-0.01589167
0.08272	-0.01561354
0.0828	-0.01469771
0.08288	-0.01398339
0.08296	-0.01385895
0.08304	-0.01313397
0.08312	-0.01241876
0.0832	-0.01186667
0.08328	-0.01145869
0.08336	-0.01125627
0.08344	-0.01088102
0.08352	-0.0108032
0.0836	-0.01076711
0.08368	-0.01015138
0.08376	-0.009549479
0.08384	-0.00966958
0.08392	-0.009238134
0.084	-0.008491082
0.08408	-0.007485532
0.08416	-0.006561555
0.08424	-0.005729422
0.08432	-0.005396978
0.0844	-0.005739103
0.08448	-0.005906964
0.08456	-0.005928405
0.08464	-0.005738248
0.08472	-0.005452722
0.0848	-0.004984932
0.08488	-0.004336911
0.08496	-0.003946854
0.08504	-0.00422219
0.08512	-0.003818481
0.0852	-0.003679898
0.08528	-0.00351624
0.08536	-0.003326078
0.08544	-0.003174748
0.08552	-0.002824144
0.0856	-0.002395449
0.08568	-0.002153513
0.08576	-0.001690532
0.08584	-0.001371285
0.08592	-0.00128154
0.086	-0.001333985
0.08608	-0.001902383
0.08616	-0.002389924
0.08624	-0.002390195
0.08632	-0.001647437
0.0864	-0.001020003
0.08648	-0.001645941
0.08656	-0.0008544676
0.08664	0.0002614914
0.08672	0.0004038191
0.0868	0.0004872025
0.08688	0.00119097
0.08696	0.001786412
0.08704	0.002929421
0.08712	0.004052338
0.0872	0.004431718
0.08728	0.004447429
0.08736	0.004349454
0.08744	0.004649741
0.08752	0.005310649
0.0876	0.006310639
0.08768	0.00682704
0.08776	0.007479091
0.08784	0.008491315
0.08792	0.00915301
0.088	0.009440492
0.08808	0.009873807
0.08816	0.01006721
0.08824	0.0107183
0.08832	0.01097741
0.0884	0.01107236
0.08848	0.01146629
0.08856	0.01185285
0.08864	0.01184762
0.08872	0.01081867
0.0888	0.009929633
0.08888	0.00905396
0.08896	0.009410947
0.08904	0.01025054
0.08912	0.01100301
0.0892	0.0109951
0.08928	0.01105136
0.08936	0.01159817
0.08944	0.01173022
0.08952	0.01204817
0.0896	0.01179239
0.08968	0.01217092
0.08976	0.01256268
0.08984	0.01292191
0.08992	0.01320652
0.09	0.01375136
0.09008	0.01392199
0.09016	0.01363451
0.09024	0.01344862
0.09032	0.01372421
0.0904	0.0143328
0.09048	0.01477605
0.09056	0.0146374
0.09064	0.0144186
0.09072	0.01473282
0.0908	0.01505986
0.09088	0.01467272
0.09096	0.01410097
0.09104	0.01374124
0.09112	0.01412839
0.0912	0.01484309
0.09128	0.01511591
0.09136	0.01520274
0.09144	0.01522489
0.09152	0.01540724
0.0916	0.01530344
0.09168	0.01462544
0.09176	0.01438876
0.09184	0.01444051
0.09192	0.01442589
0.092	0.01415249
0.09208	0.01424531
0.09216	0.01361758
0.09224	0.01336486
0.09232	0.0129809
0.0924	0.01243871
0.09248	0.01256517
0.09256	0.01310497
0.09264	0.01305038
0.09272	0.01318592
0.0928	0.01325112
0.09288	0.01262171
0.09296	0.01192183
0.09304	0.01126603
0.09312	0.01112444
0.0932	0.01152008
0.09328	0.0120372
0.09336	0.01166936
0.09344	0.01089625
0.09352	0.01062831
0.0936	0.0107188
0.09368	0.01121722
0.09376	0.01170003
0.09384	0.01148976
0.09392	0.0106534
0.094	0.009713242
0.09408	0.009164728
0.09416	0.008844412
0.09424	0.008022223
0.09432	0.007654382
0.0944	0.007462862
0.09448	0.007505745
0.09456	0.007226294
0.09464	0.006652698
0.09472	0.00576197
0.0948	0.00499136
0.09488	0.004716389
0.09496	0.004777696
0.09504	0.004847241
0.09512	0.004530229
0.0952	0.003914453
0.09528	0.003132855
0.09536	0.002104712
0.09544	0.001599118
0.09552	0.001090899
0.0956	0.0009455861
0.09568	0.001129008
0.09576	0.001907875
0.09584	0.002418368
0.09592	0.001977949
0.096	0.001457611
0.09608	0.001102782
0.09616	0.0008312323
0.09624	0.0005931244
0.09632	0.0001958729
0.0964	-0.000445458
0.09648	-0.001698249
0.09656	-0.002042555
0.09664	-0.002489246
0.09672	-0.002125725
0.0968	-0.001878576
0.09688	-0.002191746
0.09696	-0.002282139
0.09704	-0.002315212
0.09712	-0.002143155
0.0972	-0.001895634
0.09728	-0.002700358
0.09736	-0.00367928
0.09744	-0.004481039
0.09752	-0.005548401
0.0976	-0.005403677
0.09768	-0.005861817
0.09776	-0.006521032
0.09784	-0.007173719
0.09792	-0.007902355
0.098	-0.008736975
0.09808	-0.009565514
0.09816	-0.009811903
0.09824	-0.009850511
0.09832	-0.01020073
0.0984	-0.01125639
0.09848	-0.01189651
0.09856	-0.01177614
0.09864	-0.01177744
0.09872	-0.01154698
0.0988	-0.01132259
0.09888	-0.01185539
0.09896	-0.0122687
0.09904	-0.01223683
0.09912	-0.01181148
0.0992	-0.01181672
0.09928	-0.01219488
0.09936	-0.01290556
0.09944	-0.01364336
0.09952	-0.01412874
0.0996	-0.01482078
0.09968	-0.01531686
0.09976	-0.01524168
0.09984	-0.01509149
0.09992	-0.01491681
0.1	-0.01522943
0.10008	-0.01573783
0.10016	-0.01620534
0.10024	-0.01633451
0.10032	-0.01645353
0.1004	-0.01645023
0.10048	-0.01630889
0.10056	-0.01674539
0.10064	-0.0172098
0.10072	-0.01695995
0.1008	-0.01621235
0.10088	-0.01521457
0.10096	-0.01482796
0.10104	-0.01573022
0.10112	-0.01659407
0.1012	-0.01727003
0.10128	-0.01808635
0.10136	-0.01902434
0.10144	-0.0195266
0.10152	-0.01908595
0.1016	-0.01799754
0.10168	-0.01603361
0.10176	-0.01507607
0.10184	-0.01507163
0.10192	-0.01492722
0.102	-0.01459652
0.10208	-0.01465005
0.10216	-0.01470002
0.10224	-0.014165
0.10232	-0.01384012
0.1024	-0.01282703
0.10248	-0.01187712
0.10256	-0.01158066
0.10264	-0.01178306
0.10272	-0.01163821
0.1028	-0.01133769
0.10288	-0.01118247
0.10296	-0.01049354
0.10304	-0.009864822
0.10312	-0.00923661
0.1032	-0.009140158
0.10328	-0.008772551
0.10336	-0.008072338
0.10344	-0.007438384
0.10352	-0.007505767
0.1036	-0.007704312
0.10368	-0.007256231
0.10376	-0.006706699
0.10384	-0.005999972
0.10392	-0.005427321
0.104	-0.004594502
0.10408	-0.003574818
0.10416	-0.003252818
0.10424	-0.002390045
0.10432	-0.001417803
0.1044	-0.001069632
0.10448	-0.001170456
0.10456	-0.0007673536
0.10464	-0.0005726468
0.10472	-0.001091753
0.1048	-0.0008000048
0.10488	-0.0003575087
0.10496	-0.0001199208
0.10504	0.000477753
0.10512	0.0007807181
0.1052	0.0004933425
0.10528	-0.0002686194
0.10536	-0.0006760916
0.10544	-0.0001325387
0.10552	0.0008642239
0.1056	0.001456475
0.10568	0.001780904
0.10576	0.001958872
0.10584	0.001658445
0.10592	0.002156878
0.106	0.002672125
0.10608	0.003579559
0.10616	0.00445175
0.10624	0.005217038
0.10632	0.005649014
0.1064	0.005234474
0.10648	0.004471102
0.10656	0.003758144
0.10664	0.004141449
0.10672	0.004858637
0.1068	0.00503329
0.10688	0.004874408
0.10696	0.004214779
0.10704	0.003942846
0.10712	0.003893554
0.1072	0.003168766
0.10728	0.003073418
0.10736	0.003439265
0.10744	0.00438256
0.10752	0.004992944
0.1076	0.005200315
0.10768	0.005605202
0.10776	0.006064639
0.10784	0.007071299
0.10792	0.00777323
0.108	0.007580703
0.10808	0.008228694
0.10816	0.009105197
0.10824	0.009859115
0.10832	0.01039243
0.1084	0.01080999
0.10848	0.01121211
0.10856	0.01101521
0.10864	0.01077124
0.10872	0.01096182
0.1088	0.01128516
0.10888	0.01178742
0.10896	0.01218223
0.10904	0.01286737
0.10912	0.01408586
0.1092	0.01526184
0.10928	0.01628131
0.10936	0.01716432
0.10944	0.01730344
0.10952	0.01723195
0.1096	0.01721613
0.10968	0.01706979
0.10976	0.01651469
0.10984	0.01632448
0.10992	0.0161742
0.11	0.01577167
0.11008	0.01563828
0.11016	0.01628066
0.11024	0.01659412
0.11032	0.01632652
0.1104	0.01607578
0.11048	0.01587524
0.11056	0.01583238
0.11064	0.01536013
0.11072	0.01467939
0.1108	0.01403731
0.11088	0.01330654
0.11096	0.01273919
0.11104	0.01254161
0.11112	0.01293178
0.1112	0.01329953
0.11128	0.01369652
0.11136	0.01386076
0.11144	0.01456744
0.11152	0.01520964
0.1116	0.01523878
0.11168	0.01542845
0.11176	0.015773
0.11184	0.01615122
0.11192	0.01670811
0.112	0.01651007
0.11208	0.01585874
0.11216	0.01519537
0.11224	0.01521831
0.11232	0.0156642
0.1124	0.01556328
0.11248	0.01516124
0.11256	0.01422417
0.11264	0.01302785
0.11272	0.01193369
0.1128	0.01120914
0.11288	0.01035281
0.11296	0.01012237
0.11304	0.0101176
0.11312	0.01004659
0.1132	0.009934878
0.11328	0.01005089
0.11336	0.009414239
0.11344	0.009062088
0.11352	0.009252795
0.1136	0.009070043
0.11368	0.009313182
0.11376	0.009253179
0.11384	0.009106849
0.11392	0.008785029
0.114	0.009254847
0.11408	0.009812859
0.11416	0.009542111
0.11424	0.008517529
0.11432	0.008017885
0.1144	0.007311068
0.11448	0.007339973
0.11456	0.007204459
0.11464	0.006960074
0.11472	0.006611652
0.1148	0.005454706
0.11488	0.004548592
0.11496	0.00413968
0.11504	0.004050345
0.11512	0.003318822
0.1152	0.002443641
0.11528	0.002153318
0.11536	0.002654046
0.11544	0.00300471
0.11552	0.002707191
0.1156	0.002444646
0.11568	0.002210523
0.11576	0.001873038
0.11584	0.001229939
0.11592	-7.549558e-5
0.116	-0.00133189
0.11608	-0.002771108
0.11616	-0.003399556
0.11624	-0.003685318
0.11632	-0.003912522
0.1164	-0.004019125
0.11648	-0.004525735
0.11656	-0.004543078
0.11664	-0.004230124
0.11672	-0.00370864
0.1168	-0.003500215
0.11688	-0.003916625
0.11696	-0.003984125
0.11704	-0.00515719
0.11712	-0.006604096
0.1172	-0.00708415
0.11728	-0.007219126
0.11736	-0.007507471
0.11744	-0.007580966
0.11752	-0.007544327
0.1176	-0.007766876
0.11768	-0.008167694
0.11776	-0.008934759
0.11784	-0.008966993
0.11792	-0.009119415
0.118	-0.009458374
0.11808	-0.009630174
0.11816	-0.01024377
0.11824	-0.01022592
0.11832	-0.01020433
0.1184	-0.01085021
0.11848	-0.01167143
0.11856	-0.01299372
0.11864	-0.01421375
0.11872	-0.0153628
0.1188	-0.01531638
0.11888	-0.01552545
0.11896	-0.01585849
0.11904	-0.01594026
0.11912	-0.01669016
0.1192	-0.01744068
0.11928	-0.01766602
0.11936	-0.01808818
0.11944	-0.01821145
0.11952	-0.01771877
0.1196	-0.0178292
0.11968	-0.01802388
0.11976	-0.01811049
0.11984	-0.01779234
0.11992	-0.01801634
0.12	-0.01811948
0.12008	-0.017876
0.12016	-0.01789915
0.12024	-0.01807916
0.12032	-0.01839638
0.1204	-0.0180871
0.12048	-0.01809322
0.12056	-0.01853576
0.12064	-0.0184605
0.12072	-0.01825618
0.1208	-0.01779266
0.12088	-0.01695108
0.12096	-0.01632228
0.12104	-0.01594114
0.12112	-0.01591629
0.1212	-0.01585929
0.12128	-0.01564075
0.12136	-0.0159853
0.12144	-0.01688126
0.12152	-0.01769479
0.1216	-0.01823057
0.12168	-0.01806766
0.12176	-0.01798138
0.12184	-0.01800041
0.12192	-0.01740635
0.122	-0.01678101
0.12208	-0.01643462
0.12216	-0.01639393
0.12224	-0.01630789
0.12232	-0.01589713
0.1224	-0.01559851
0.12248	-0.01579064
0.12256	-0.01578152
0.12264	-0.01562295
0.12272	-0.01549819
0.1228	-0.01465383
0.12288	-0.01357851
0.12296	-0.01336577
0.12304	-0.01317131
0.12312	-0.01314136
0.1232	-0.01312931
0.12328	-0.01331357
0.12336	-0.01343178
0.12344	-0.01314756
0.12352	-0.01331546
0.1236	-0.01316965
0.12368	-0.01267153
0.12376	-0.01167903
0.12384	-0.01029037
0.12392	-0.009215308
0.124	-0.008175999
0.12408	-0.008032229
0.12416	-0.007966661
0.12424	-0.007699912
0.12432	-0.007239114
0.1244	-0.006812897
0.12448	-0.006428864
0.12456	-0.005349272
0.12464	-0.004734872
0.12472	-0.00424589
0.1248	-0.00369951
0.12488	-0.003372698
0.12496	-0.003523765
0.12504	-0.003455794
0.12512	-0.003202045
0.1252	-0.003010507
0.12528	-0.00276822
0.12536	-0.002031202
0.12544	-0.0008723621
0.12552	-0.0003402024
0.1256	-0.0001804185
0.12568	-0.0004313226
0.12576	-0.0003140082
0.12584	-0.0002831574
0.12592	-0.0004466536
0.126	-0.0008130128
0.12608	-0.000588263
0.12616	9.856441e-5
0.12624	0.0007392512
0.12632	0.001253677
0.1264	0.001672192
0.12648	0.002316331
0.12656	0.002514601
0.12664	0.002527531
0.12672	0.002764976
0.1268	0.003029194
0.12688	0.003593369
0.12696	0.004128078
0.12704	0.004145933
0.12712	0.004159125
0.1272	0.005007518
0.12728	0.005477844
0.12736	0.005307648
0.12744	0.005937755
0.12752	0.006907481
0.1276	0.007305919
0.12768	0.006747321
0.12776	0.006233868
0.12784	0.006052153
0.12792	0.005976792
0.128	0.006612624
0.12808	0.006791329
0.12816	0.007492454
0.12824	0.008415087
0.12832	0.009370584
0.1284	0.01022604
0.12848	0.01063574
0.12856	0.0100158
0.12864	0.01016587
0.12872	0.0107855
0.1288	0.010846
0.12888	0.01014358
0.12896	0.009937799
0.12904	0.01090701
0.12912	0.01149414
0.1292	0.01173962
0.12928	0.01187211
0.12936	0.01164333
0.12944	0.01185424
0.12952	0.01282754
0.1296	0.01330396
0.12968	0.01320647
0.12976	0.01355832
0.12984	0.01362139
0.12992	0.01337505
0.13	0.0137671
0.13008	0.01458409
0.13016	0.01504819
0.13024	0.01564344
0.13032	0.01667092
0.1304	0.01806745
0.13048	0.01850405
0.13056	0.01848175
0.13064	0.01781488
0.13072	0.01716882
0.1308	0.01653766
0.13088	0.01624442
0.13096	0.01561493
0.13104	0.01586006
0.13112	0.01704097
0.1312	0.01771003
0.13128	0.01828141
0.13136	0.01780974
0.13144	0.01679717
0.13152	0.01567358
0.1316	0.0149815
0.13168	0.01522776
0.13176	0.01599816
0.13184	0.01716834
0.13192	0.01780657
0.132	0.01797856
0.13208	0.017717
0.13216	0.01667943
0.13224	0.0161309
0.13232	0.01593194
0.1324	0.01640443
0.13248	0.01660664
0.13256	0.01629591
0.13264	0.01618159
0.13272	0.01572622
0.1328	0.01530159
0.13288	0.01489243
0.13296	0.01428566
0.13304	0.01355777
0.13312	0.01237483
0.1332	0.01156076
0.13328	0.01083571
0.13336	0.009659199
0.13344	0.009458254
0.13352	0.01010746
0.1336	0.01064314
0.13368	0.01002405
0.13376	0.009514197
0.13384	0.009020129
0.13392	0.008960231
0.134	0.008965926
0.13408	0.00826425
0.13416	0.00775886
0.13424	0.007580244
0.13432	0.007660858
0.1344	0.007876652
0.13448	0.008070265
0.13456	0.008414179
0.13464	0.008610696
0.13472	0.008135704
0.1348	0.007426488
0.13488	0.006448662
0.13496	0.006069304
0.13504	0.004756412
0.13512	0.0040746
0.1352	0.003398183
0.13528	0.002118894
0.13536	0.001251289
0.13544	0.0008344883
0.13552	0.000747792
0.1356	3.255626e-5
0.13568	-0.0007189307
0.13576	-0.001711086
0.13584	-0.002527141
0.13592	-0.002737107
0.136	-0.002453009
0.13608	-0.002661188
0.13616	-0.003308631
0.13624	-0.003441039
0.13632	-0.003493169
0.1364	-0.003519853
0.13648	-0.004037357
0.13656	-0.004746471
0.13664	-0.005199692
0.13672	-0.005184049
0.1368	-0.005352602
0.13688	-0.006023637
0.13696	-0.006786602
0.13704	-0.007230802
0.13712	-0.008136966
0.1372	-0.008967091
0.13728	-0.009245596
0.13736	-0.009284322
0.13744	-0.009431808
0.13752	-0.009917219
0.1376	-0.01056662
0.13768	-0.0110042
0.13776	-0.01102157
0.13784	-0.01059803
0.13792	-0.01085902
0.138	-0.01131542
0.13808	-0.01197802
0.13816	-0.01227826
0.13824	-0.01298092
0.13832	-0.01308908
0.1384	-0.01319142
0.13848	-0.01328089
0.13856	-0.01314047
0.13864	-0.01346299
0.13872	-0.01346109
0.1388	-0.01321287
0.13888	-0.01292448
0.13896	-0.01306572
0.13904	-0.01323778
0.13912	-0.01349729
0.1392	-0.01348051
0.13928	-0.01338522
0.13936	-0.01372538
0.13944	-0.01374741
0.13952	-0.01370532
0.1396	-0.01356933
0.13968	-0.01339258
0.13976	-0.01364567
0.13984	-0.01364295
0.13992	-0.01283772
0.14	-0.01274403
0.14008	-0.01317305
0.14016	-0.01341707
0.14024	-0.01375025
0.14032	-0.01383948
0.1404	-0.01424731
0.14048	-0.01502625
0.14056	-0.01533504
0.14064	-0.01569648
0.14072	-0.01559935
0.1408	-0.01528385
0.14088	-0.01563915
0.14096	-0.01571124
0.14104	-0.01518986
0.14112	-0.01477783
0.1412	-0.014979
0.14128	-0.01495831
0.14136	-0.01484047
0.14144	-0.01427396
0.14152	-0.01366896
0.1416	-0.01377531
0.14168	-0.01435694
0.14176	-0.01500367
0.14184	-0.0154726
0.14192	-0.01530891
0.142	-0.01470945
0.14208	-0.01502631
0.14216	-0.01554436
0.14224	-0.01521043
0.14232	-0.01511204
0.1424	-0.01458179
0.14248	-0.01347233
0.14256	-0.01306752
0.14264	-0.01294722
0.14272	-0.0129397
0.1428	-0.01257819
0.14288	-0.01237844
0.14296	-0.0127036
0.14304	-0.01271052
0.14312	-0.01248638
0.1432	-0.01196142
0.14328	-0.01166825
0.14336	-0.01089995
0.14344	-0.01040366
0.14352	-0.01024002
0.1436	-0.01016832
0.14368	-0.009948763
0.14376	-0.009671202
0.14384	-0.009675081
0.14392	-0.01019709
0.144	-0.01060897
0.14408	-0.01015259
0.14416	-0.01014991
0.14424	-0.009820031
0.14432	-0.009377218
0.1444	-0.009244999
0.14448	-0.00921118
0.14456	-0.009425962
0.14464	-0.009397094
0.14472	-0.008841058
0.1448	-0.008122072
0.14488	-0.007370997
0.14496	-0.006560861
0.14504	-0.005994652
0.14512	-0.004605487
0.1452	-0.003761185
0.14528	-0.003435936
0.14536	-0.002942353
0.14544	-0.002707964
0.14552	-0.002731581
0.1456	-0.002715537
0.14568	-0.002689787
0.14576	-0.0029973
0.14584	-0.002654783
0.14592	-0.002024372
0.146	-0.0007598802
0.14608	8.613459e-5
0.14616	0.001249908
0.14624	0.002088451
0.14632	0.002313841
0.1464	0.001904263
0.14648	0.001922995
0.14656	0.002141632
0.14664	0.002298921
0.14672	0.00280831
0.1468	0.00263076
0.14688	0.002573214
0.14696	0.00297269
0.14704	0.003842594
0.14712	0.004191553
0.1472	0.004425119
0.14728	0.004452341
0.14736	0.005048757
0.14744	0.006184357
0.14752	0.007050366
0.1476	0.007281328
0.14768	0.007649955
0.14776	0.008665349
0.14784	0.008713027
0.14792	0.008445794
0.148	0.008332911
0.14808	0.008286804
0.14816	0.008101583
0.14824	0.008090333
0.14832	0.008115783
0.1484	0.008611723
0.14848	0.009204767
0.14856	0.009907193
0.14864	0.01064283
0.14872	0.01190031
0.1488	0.01301848
0.14888	0.01419169
0.14896	0.01465179
0.14904	0.01436733
0.14912	0.01444429
0.1492	0.0146863
0.14928	0.01488915
0.14936	0.01531263
0.14944	0.01567225
0.14952	0.01586764
0.1496	0.01566613
0.14968	0.01469065
0.14976	0.01401182
0.14984	0.0138154
0.14992	0.01434092
0.15	0.01573356
0.15008	0.01724178
0.15016	0.01832255
0.15024	0.01851601
0.15032	0.01920908
0.1504	0.0201318
0.15048	0.02042419
0.15056	0.02057182
0.15064	0.02019719
0.15072	0.02012529
0.1508	0.0195752
0.15088	0.01859348
0.15096	0.01740235
0.15104	0.0164459
0.15112	0.01610105
0.1512	0.0159561
0.15128	0.01593803
0.15136	0.01612683
0.15144	0.01652749
0.15152	0.01700746
0.1516	0.01692009
0.15168	0.01656379
0.15176	0.01651054
0.15184	0.01682563
0.15192	0.01701971
0.152	0.01695867
0.15208	0.01673968
0.15216	0.01668573
0.15224	0.01660989
0.15232	0.01707665
0.1524	0.01712422
0.15248	0.01710697
0.15256	0.01753524
0.15264	0.01768943
0.15272	0.01653297
0.1528	0.01536115
0.15288	0.0149464
0.15296	0.01425211
0.15304	0.01397269
0.15312	0.0137079
0.1532	0.01268772
0.15328	0.01183041
0.15336	0.01082894
0.15344	0.01006399
0.15352	0.009552278
0.1536	0.008698454
0.15368	0.007991467
0.15376	0.007872303
0.15384	0.007518132
0.15392	0.006273351
0.154	0.005105241
0.15408	0.004739057
0.15416	0.005202303
0.15424	0.005469264
0.15432	0.004725434
0.1544	0.004490039
0.15448	0.003705003
0.15456	0.003051449
0.15464	0.003207507
0.15472	0.003315644
0.1548	0.00278031
0.15488	0.001965021
0.15496	0.001076425
0.15504	0.0006796913
0.15512	0.001077267
0.1552	0.001086918
0.15528	0.0007341054
0.15536	0.0003587015
0.15544	0.0003986504
0.15552	0.0007703052
0.1556	0.0004608024
0.15568	0.0006579668
0.15576	0.0006378304
0.15584	0.000168693
0.15592	-0.0001767508
0.156	-0.0007984531
0.15608	-0.00103793
0.15616	-0.001001993
0.15624	-0.0008276324
0.15632	-0.0006279019
0.1564	-0.001115984
0.15648	-0.001692508
0.15656	-0.001977181
0.15664	-0.00255343
0.15672	-0.003661948
0.1568	-0.004397998
0.15688	-0.0049701
0.15696	-0.005757452
0.15704	-0.006419407
0.15712	-0.007477588
0.1572	-0.007743029
0.15728	-0.007435528
0.15736	-0.007099457
0.15744	-0.006979566
0.15752	-0.006711111
0.1576	-0.006645685
0.15768	-0.006467946
0.15776	-0.006438494
0.15784	-0.006854569
0.15792	-0.007515517
0.158	-0.008161771
0.15808	-0.008402594
0.15816	-0.008611175
0.15824	-0.009168611
0.15832	-0.009830308
0.1584	-0.009779715
0.15848	-0.009170556
0.15856	-0.008512167
0.15864	-0.008992404
0.15872	-0.009771206
0.1588	-0.009834502
0.15888	-0.009547858
0.15896	-0.009805297
0.15904	-0.009948272
0.15912	-0.0101018
0.1592	-0.01048847
0.15928	-0.0104301
0.15936	-0.01027984
0.15944	-0.01085272
0.15952	-0.01137264
0.1596	-0.01164692
0.15968	-0.01149392
0.15976	-0.01187672
0.15984	-0.01249361
0.15992	-0.0127461
0.16	-0.01209294
0.16008	-0.01164024
0.16016	-0.01169857
0.16024	-0.01163677
0.16032	-0.01147965
0.1604	-0.0117878
0.16048	-0.01234512
0.16056	-0.01241294
0.16064	-0.01249916
0.16072	-0.01215551
0.1608	-0.01183877
0.16088	-0.01139376
0.16096	-0.01071763
0.16104	-0.01026981
0.16112	-0.01071615
0.1612	-0.01102428
0.16128	-0.01149036
0.16136	-0.01211082
0.16144	-0.01237004
0.16152	-0.0123902
0.1616	-0.01227173
0.16168	-0.01262065
0.16176	-0.01280373
0.16184	-0.01308247
0.16192	-0.01358228
0.162	-0.01373309
0.16208	-0.01376175
0.16216	-0.01401078
0.16224	-0.0143509
0.16232	-0.01377737
0.1624	-0.012648
0.16248	-0.01204078
0.16256	-0.01242829
0.16264	-0.01281791
0.16272	-0.01295923
0.1628	-0.01294569
0.16288	-0.0134539
0.16296	-0.01380791
0.16304	-0.01417894
0.16312	-0.01420957
0.1632	-0.01410913
0.16328	-0.01447102
0.16336	-0.01478073
0.16344	-0.0143717
0.16352	-0.01423853
0.1636	-0.01418107
0.16368	-0.01418391
0.16376	-0.01389029
0.16384	-0.01319105
0.16392	-0.01247054
0.164	-0.011585
0.16408	-0.01121349
0.16416	-0.01060337
0.16424	-0.01046122
0.16432	-0.01056527
0.1644	-0.01004385
0.16448	-0.009083032
0.16456	-0.008237403
0.16464	-0.007238319
0.16472	-0.005995194
0.1648	-0.00540833
0.16488	-0.004613024
0.16496	-0.003603012
0.16504	-0.003029169
0.16512	-0.002597271
0.1652	-0.002706209
0.16528	-0.003482691
0.16536	-0.003951862
0.16544	-0.003624549
0.16552	-0.003071555
0.1656	-0.00175091
0.16568	-0.0005450072
0.16576	0.000791752
0.16584	0.001920331
0.16592	0.002262459
0.166	0.00190462
0.16608	0.001874181
0.16616	0.002267677
0.16624	0.003220269
0.16632	0.004447749
0.1664	0.0049293
0.16648	0.005724304
0.16656	0.006100492
0.16664	0.006363315
0.16672	0.006134054
0.1668	0.006408741
0.16688	0.006857925
0.16696	0.007556322
0.16704	0.007512245
0.16712	0.006950695
0.1672	0.006622873
0.16728	0.0060765
0.16736	0.006005071
0.16744	0.00632041
0.16752	0.006888234
0.1676	0.006992558
0.16768	0.007980404
0.16776	0.009037987
0.16784	0.009537118
0.16792	0.01012997
0.168	0.01081846
0.16808	0.0113307
0.16816	0.01112474
0.16824	0.01116325
0.16832	0.01126147
0.1684	0.01156226
0.16848	0.01176399
0.16856	0.01190895
0.16864	0.01264536
0.16872	0.01342357
0.1688	0.01442975
0.16888	0.01525954
0.16896	0.01589783
0.16904	0.01610572
0.16912	0.01629915
0.1692	0.01654512
0.16928	0.01692426
0.16936	0.0170713
0.16944	0.01712554
0.16952	0.01698672
0.1696	0.01679931
0.16968	0.01668369
0.16976	0.01705944
0.16984	0.01795034
0.16992	0.01928612
0.17	0.020038
0.17008	0.0201773
0.17016	0.01997714
0.17024	0.01992982
0.17032	0.01932215
0.1704	0.01877633
0.17048	0.01834336
0.17056	0.01823923
0.17064	0.01766832
0.17072	0.0174499
0.1708	0.01760694
0.17088	0.01745029
0.17096	0.01745643
0.17104	0.01752696
0.17112	0.0177891
0.1712	0.01827904
0.17128	0.01898801
0.17136	0.01906192
0.17144	0.01843377
0.17152	0.01819828
0.1716	0.01772744
0.17168	0.01749948
0.17176	0.01739669
0.17184	0.01731359
0.17192	0.01670553
0.172	0.01633415
0.17208	0.01662902
0.17216	0.01626072
0.17224	0.01667307
0.17232	0.01686651
0.1724	0.01677839
0.17248	0.01651022
0.17256	0.01671252
0.17264	0.0177624
0.17272	0.01843198
0.1728	0.01867575
0.17288	0.01883012
0.17296	0.01868541
0.17304	0.01810459
0.17312	0.0175495
0.1732	0.01671796
0.17328	0.01650617
0.17336	0.01591651
0.17344	0.01519142
0.17352	0.0144735
0.1736	0.01399447
0.17368	0.0136457
0.17376	0.01334967
0.17384	0.01273428
0.17392	0.01263884
0.174	0.01289322
0.17408	0.01239745
0.17416	0.01195463
0.17424	0.01105368
0.17432	0.009511545
0.1744	0.007990552
0.17448	0.007047521
0.17456	0.005694022
0.17464	0.005229453
0.17472	0.004380149
0.1748	0.003568331
0.17488	0.002955156
0.17496	0.002212316
0.17504	0.001913855
0.17512	0.00116323
0.1752	0.0008693963
0.17528	0.0007963695
0.17536	0.0001925786
0.17544	-0.0005916414
0.17552	-0.001628574
0.1756	-0.003004891
0.17568	-0.003959153
0.17576	-0.004804702
0.17584	-0.005166581
0.17592	-0.005114072
0.176	-0.005322526
0.17608	-0.005223094
0.17616	-0.004804782
0.17624	-0.004430907
0.17632	-0.004574013
0.1764	-0.005023775
0.17648	-0.006373498
0.17656	-0.007497957
0.17664	-0.008207014
0.17672	-0.008433005
0.1768	-0.008830416
0.17688	-0.009264006
0.17696	-0.009310444
0.17704	-0.009952887
0.17712	-0.01006138
0.1772	-0.01025543
0.17728	-0.01069058
0.17736	-0.01090549
0.17744	-0.01094119
0.17752	-0.01066666
0.1776	-0.01109869
0.17768	-0.01145236
0.17776	-0.01152623
0.17784	-0.0113294
0.17792	-0.01116786
0.178	-0.01144539
0.17808	-0.01185401
0.17816	-0.01183254
0.17824	-0.01176918
0.17832	-0.01196857
0.1784	-0.01209032
0.17848	-0.01232099
0.17856	-0.01229281
0.17864	-0.01234489
0.17872	-0.01261055
0.1788	-0.0126323
0.17888	-0.01225729
0.17896	-0.01206851
0.17904	-0.01177988
0.17912	-0.01144588
0.1792	-0.01064963
0.17928	-0.01096081
0.17936	-0.01159716
0.17944	-0.01205152
0.17952	-0.01247674
0.1796	-0.01284597
0.17968	-0.01335174
0.17976	-0.01347785
0.17984	-0.01390132
0.17992	-0.01383303
0.18	-0.0134432
0.18008	-0.01307534
0.18016	-0.01288417
0.18024	-0.0129292
0.18032	-0.01353617
0.1804	-0.01358995
0.18048	-0.01301011
0.18056	-0.0125427
0.18064	-0.01200678
0.18072	-0.01152429
0.1808	-0.0115111
0.18088	-0.01161748
0.18096	-0.01166182
0.18104	-0.01179809
0.18112	-0.01208199
0.1812	-0.0123169
0.18128	-0.01223167
0.18136	-0.01198268
0.18144	-0.01193087
0.18152	-0.0122225
0.1816	-0.01262635
0.18168	-0.01237684
0.18176	-0.01147725
0.18184	-0.01036869
0.18192	-0.009405937
0.182	-0.0088068
0.18208	-0.008538799
0.18216	-0.008971181
0.18224	-0.009871275
0.18232	-0.0102098
0.1824	-0.00965292
0.18248	-0.009406511
0.18256	-0.008940559
0.18264	-0.008504069
0.18272	-0.008311116
0.1828	-0.007708354
0.18288	-0.006892384
0.18296	-0.006489061
0.18304	-0.005844086
0.18312	-0.005477981
0.1832	-0.00512187
0.18328	-0.005098124
0.18336	-0.005390855
0.18344	-0.005554403
0.18352	-0.005980797
0.1836	-0.006787207
0.18368	-0.007455396
0.18376	-0.007546597
0.18384	-0.007628347
0.18392	-0.007336947
0.184	-0.007396842
0.18408	-0.006901171
0.18416	-0.005821719
0.18424	-0.006045335
0.18432	-0.006933456
0.1844	-0.007300809
0.18448	-0.007841473
0.18456	-0.007929912
0.18464	-0.006819222
0.18472	-0.00660551
0.1848	-0.006480111
0.18488	-0.006017407
0.18496	-0.005880877
0.18504	-0.005275336
0.18512	-0.00496395
0.1852	-0.005341225
0.18528	-0.005753168
0.18536	-0.005791351
0.18544	-0.005482258
0.18552	-0.004766784
0.1856	-0.0040289
0.18568	-0.00363206
0.18576	-0.003049719
0.18584	-0.002657549
0.18592	-0.002054114
0.186	-0.001185105
0.18608	-0.0004872153
0.18616	0.0002004816
0.18624	0.0003248333
0.18632	-1.987925e-8
0.1864	0.0002530529
0.18648	0.0008654374
0.18656	0.001080571
0.18664	0.0006699293
0.18672	0.0008701368
0.1868	0.001836758
0.18688	0.001972516
0.18696	0.002483235
0.18704	0.003089371
0.18712	0.004093369
0.1872	0.005125948
0.18728	0.005573896
0.18736	0.005756537
0.18744	0.006194489
0.18752	0.006811993
0.1876	0.007629647
0.18768	0.008217824
0.18776	0.01000004
0.18784	0.01122135
0.18792	0.0108355
0.188	0.01076331
0.18808	0.01057654
0.18816	0.01062644
0.18824	0.01151477
0.18832	0.01284199
0.1884	0.01356027
0.18848	0.01443218
0.18856	0.0145838
0.18864	0.01501918
0.18872	0.01572134
0.1888	0.0157991
0.18888	0.01608651
0.18896	0.01714534
0.18904	0.01743461
0.18912	0.01713854
0.1892	0.01681643
0.18928	0.01632053
0.18936	0.01630506
0.18944	0.01595177
0.18952	0.01583632
0.1896	0.01626521
0.18968	0.01649596
0.18976	0.0165471
0.18984	0.01653607
0.18992	0.01636385
0.19	0.01582231
0.19008	0.01568455
0.19016	0.01641103
0.19024	0.01641283
0.19032	0.01607363
0.1904	0.01614233
0.19048	0.01687345
0.19056	0.01708657
0.19064	0.01651061
0.19072	0.0162811
0.1908	0.01584534
0.19088	0.01558615
0.19096	0.01543873
0.19104	0.01516488
0.19112	0.01538427
0.1912	0.01567183
0.19128	0.01569298
0.19136	0.0156549
0.19144	0.01523562
0.19152	0.01486083
0.1916	0.01455382
0.19168	0.01472024
0.19176	0.01480819
0.19184	0.01391289
0.19192	0.01306471
0.192	0.01296766
0.19208	0.01322032
0.19216	0.01282743
0.19224	0.01235793
0.19232	0.01196512
0.1924	0.01171882
0.19248	0.0117887
0.19256	0.01177798
0.19264	0.01170461
0.19272	0.01132694
0.1928	0.01074814
0.19288	0.01012333
0.19296	0.009270059
0.19304	0.008723865
0.19312	0.008802306
0.1932	0.009874648
0.19328	0.01018441
0.19336	0.009551843
0.19344	0.00821525
0.19352	0.00722145
0.1936	0.00652546
0.19368	0.00647546
0.19376	0.006800233
0.19384	0.00659156
0.19392	0.006194796
0.194	0.005215832
0.19408	0.004760003
0.19416	0.004931688
0.19424	0.004392951
0.19432	0.00390292
0.1944	0.003746061
0.19448	0.003613145
0.19456	0.003394708
0.19464	0.002716297
0.19472	0.00173033
0.1948	0.0008441447
0.19488	0.0002697083
0.19496	-0.0003362014
0.19504	-0.0009222704
0.19512	-0.001158722
0.1952	-0.000950623
0.19528	8.036074e-5
0.19536	0.001053749
0.19544	0.001477684
0.19552	0.001936601
0.1956	0.002465205
0.19568	0.002223615
0.19576	0.000957504
0.19584	0.0005748868
0.19592	-6.520766e-5
0.196	-0.001151595
0.19608	-0.002052776
0.19616	-0.003234253
0.19624	-0.004296883
0.19632	-0.004890863
0.1964	-0.005374829
0.19648	-0.006120254
0.19656	-0.006479132
0.19664	-0.006821986
0.19672	-0.007386098
0.1968	-0.007923616
0.19688	-0.008118084
0.19696	-0.008663844
0.19704	-0.0094363
0.19712	-0.009942111
0.1972	-0.01018478
0.19728	-0.01096854
0.19736	-0.01165722
0.19744	-0.0117938
0.19752	-0.01207143
0.1976	-0.01248592
0.19768	-0.01299687
0.19776	-0.01297664
0.19784	-0.01257411
0.19792	-0.01217961
0.198	-0.0124106
0.19808	-0.01270045
0.19816	-0.01311734
0.19824	-0.01293857
0.19832	-0.01289424
0.1984	-0.01245842
0.19848	-0.01226546
0.19856	-0.01325321
0.19864	-0.01433318
0.19872	-0.01543713
0.1988	-0.01587876
0.19888	-0.01561464
0.19896	-0.01540673
0.19904	-0.01528354
0.19912	-0.01517544
0.1992	-0.01561538
0.19928	-0.01626339
0.19936	-0.01634937
0.19944	-0.01640582
0.19952	-0.01687047
0.1996	-0.01732058
0.19968	-0.01724327
0.19976	-0.01702768
0.19984	-0.01723406
0.19992	-0.01711135
0.2	-0.01708944
0.20008	-0.0176449
0.20016	-0.0172033
0.20024	-0.01693946
0.20032	-0.01664548
0.2004	-0.01612243
0.20048	-0.01626446
0.20056	-0.01600758
0.20064	-0.01583531
0.20072	-0.01579313
0.2008	-0.01595103
0.20088	-0.01663813
0.20096	-0.0170613
0.20104	-0.01729709
0.20112	-0.0172017
0.2012	-0.01608256
0.20128	-0.01513765
0.20136	-0.01462137
0.20144	-0.01426003
0.20152	-0.01466107
0.2016	-0.01496841
0.20168	-0.01507019
0.20176	-0.01568159
0.20184	-0.01627998
0.20192	-0.0160137
0.202	-0.01558209
0.20208	-0.01518823
0.20216	-0.0155595
0.20224	-0.0161454
0.20232	-0.01612674
0.2024	-0.0149951
0.20248	-0.01401592
0.20256	-0.01321906
0.20264	-0.01300022
0.20272	-0.01316794
0.2028	-0.01330336
0.20288	-0.01262607
0.20296	-0.01150641
0.20304	-0.01157984
0.20312	-0.01181126
0.2032	-0.01205045
0.20328	-0.01202371
0.20336	-0.0120778
0.20344	-0.01218073
0.20352	-0.01178593
0.2036	-0.01128286
0.20368	-0.01107642
0.20376	-0.01058996
0.20384	-0.01010558
0.20392	-0.009300322
0.204	-0.008970491
0.20408	-0.008603215
0.20416	-0.007502066
0.20424	-0.006450058
0.20432	-0.006030039
0.2044	-0.005845437
0.20448	-0.005568801
0.20456	-0.005238932
0.20464	-0.005011349
0.20472	-0.005059109
0.2048	-0.005064697
0.20488	-0.005516853
0.20496	-0.005705408
0.20504	-0.005800465
0.20512	-0.006059553
0.2052	-0.006034475
0.20528	-0.005122788
0.20536	-0.004373922
0.20544	-0.003298974
0.20552	-0.001199315
0.2056	-6.909119e-6
0.20568	-0.0006505254
0.20576	-0.001541808
0.20584	-0.001602373
0.20592	-0.0007975309
0.206	0.000256941
0.20608	0.00142123
0.20616	0.001842093
0.20624	0.0007539677
0.20632	0.0004781652
0.2064	0.0009070042
0.20648	0.002152659
0.20656	0.003198124
0.20664	0.003853461
0.20672	0.004375468
0.2068	0.004859544
0.20688	0.004647988
0.20696	0.004215794
0.20704	0.004064713
0.20712	0.004622382
0.2072	0.004810955
0.20728	0.005442984
0.20736	0.005618553
0.20744	0.005467604
0.20752	0.006084086
0.2076	0.007168032
0.20768	0.008102593
0.20776	0.008160677
0.20784	0.00853389
0.20792	0.009392573
0.208	0.01039451
0.20808	0.01095864
0.20816	0.0112634
0.20824	0.011795
0.20832	0.01174838
0.2084	0.01161805
0.20848	0.01129202
0.20856	0.01139001
0.20864	0.01167004
0.20872	0.01202084
0.2088	0.01271817
0.20888	0.01264525
0.20896	0.01167802
0.20904	0.01122109
0.20912	0.01135244
0.2092	0.01141384
0.20928	0.01123566
0.20936	0.0113711
0.20944	0.01080718
0.20952	0.01010853
0.2096	0.01052908
0.20968	0.0118625
0.20976	0.01311546
0.20984	0.01371675
0.20992	0.01401466
0.21	0.01390813
0.21008	0.01365583
0.21016	0.01323358
0.21024	0.01322116
0.21032	0.01355661
0.2104	0.01409424
0.21048	0.0145589
0.21056	0.01490194
0.21064	0.01454126
0.21072	0.01445571
0.2108	0.01510265
0.21088	0.015492
0.21096	0.0159114
0.21104	0.01558616
0.21112	0.0157789
0.2112	0.0158757
0.21128	0.01592776
0.21136	0.01596492
0.21144	0.01599952
0.21152	0.01591654
0.2116	0.0153332
0.21168	0.01502916
0.21176	0.01528065
0.21184	0.01611396
0.21192	0.01654042
0.212	0.01636367
0.21208	0.01548068
0.21216	0.01446549
0.21224	0.01418003
0.21232	0.0133253
0.2124	0.01223949
0.21248	0.01123608
0.21256	0.01108778
0.21264	0.01110121
0.21272	0.01118828
0.2128	0.01089958
0.21288	0.01037742
0.21296	0.00976951
0.21304	0.009196082
0.21312	0.009627166
0.2132	0.01000475
0.21328	0.01055622
0.21336	0.01159764
0.21344	0.01222408
0.21352	0.01158659
0.2136	0.01105858
0.21368	0.01011933
0.21376	0.00947964
0.21384	0.009106912
0.21392	0.009134459
0.214	0.008692343
0.21408	0.007909443
0.21416	0.008143231
0.21424	0.008439064
0.21432	0.008048009
0.2144	0.007750729
0.21448	0.006977989
0.21456	0.005669225
0.21464	0.004704278
0.21472	0.004177305
0.2148	0.003631675
0.21488	0.003036192
0.21496	0.002624154
0.21504	0.003345658
0.21512	0.004280528
0.2152	0.00440959
0.21528	0.003899523
0.21536	0.00262751
0.21544	0.001931149
0.21552	0.001313086
0.2156	0.0004457286
0.21568	-0.0001739022
0.21576	-0.00105667
0.21584	-0.001586677
0.21592	-0.001424144
0.216	-0.00143151
0.21608	-0.001903532
0.21616	-0.002195715
0.21624	-0.002190376
0.21632	-0.002183911
0.2164	-0.002140838
0.21648	-0.002255419
0.21656	-0.003197203
0.21664	-0.003950587
0.21672	-0.005116595
0.2168	-0.005862695
0.21688	-0.005865478
0.21696	-0.0055167
0.21704	-0.005569055
0.21712	-0.005986666
0.2172	-0.006335596
0.21728	-0.006627038
0.21736	-0.007165294
0.21744	-0.007083087
0.21752	-0.007373371
0.2176	-0.007681266
0.21768	-0.008311369
0.21776	-0.009113517
0.21784	-0.009948995
0.21792	-0.01047878
0.218	-0.01033031
0.21808	-0.01044025
0.21816	-0.01089266
0.21824	-0.01179873
0.21832	-0.01221956
0.2184	-0.01244909
0.21848	-0.01232462
0.21856	-0.01226263
0.21864	-0.01243226
0.21872	-0.01309083
0.2188	-0.01410096
0.21888	-0.01525752
0.21896	-0.01598158
0.21904	-0.01636403
0.21912	-0.01643146
0.2192	-0.01662769
0.21928	-0.01733954
0.21936	-0.01745936
0.21944	-0.01759213
0.21952	-0.01811666
0.2196	-0.01850383
0.21968	-0.01854423
0.21976	-0.01887324
0.21984	-0.01893267
0.21992	-0.01879384
0.22	-0.01839081
0.22008	-0.01787848
0.22016	-0.01763947
0.22024	-0.0173813
0.22032	-0.01747231
0.2204	-0.01810359
0.22048	-0.01907546
0.22056	-0.0192397
0.22064	-0.01917864
0.22072	-0.0195351
0.2208	-0.01938087
0.22088	-0.01859361
0.22096	-0.01793554
0.22104	-0.01801059
0.22112	-0.018018
0.2212	-0.01790722
0.22128	-0.0168438
0.22136	-0.01555884
0.22144	-0.01516817
0.22152	-0.0155127
0.2216	-0.01625902
0.22168	-0.01704312
0.22176	-0.0169703
0.22184	-0.01649333
0.22192	-0.01566396
0.222	-0.01458681
0.22208	-0.01399947
0.22216	-0.01325387
0.22224	-0.01223924
0.22232	-0.01196348
0.2224	-0.01188483
0.22248	-0.01156031
0.22256	-0.0110756
0.22264	-0.01105085
0.22272	-0.01078915
0.2228	-0.009912221
0.22288	-0.009676725
0.22296	-0.009466155
0.22304	-0.009124023
0.22312	-0.008701538
0.2232	-0.009263486
0.22328	-0.01015157
0.22336	-0.01046697
0.22344	-0.01086936
0.22352	-0.0104643
0.2236	-0.01002748
0.22368	-0.009521396
0.22376	-0.009388314
0.22384	-0.008900297
0.22392	-0.008072142
0.224	-0.007475528
0.22408	-0.007107047
0.22416	-0.006474384
0.22424	-0.005416305
0.22432	-0.004156365
0.2244	-0.003657354
0.22448	-0.003782515
0.22456	-0.00332027
0.22464	-0.002932669
0.22472	-0.002246724
0.2248	-0.001461721
0.22488	-0.001379595
0.22496	-0.0008359814
0.22504	-0.0003117992
0.22512	-6.551495e-6
0.2252	-0.0005415521
0.22528	-0.001024091
0.22536	-0.001472253
0.22544	-0.001269951
0.22552	-0.000766348
0.2256	-0.000318994
0.22568	0.0008287288
0.22576	0.001464689
0.22584	0.001504808
0.22592	0.001763833
0.226	0.002252769
0.22608	0.002684149
0.22616	0.003150477
0.22624	0.003418872
0.22632	0.003484535
0.2264	0.003484028
0.22648	0.003204047
0.22656	0.002903138
0.22664	0.003593903
0.22672	0.004670286
0.2268	0.005369718
0.22688	0.005220103
0.22696	0.005261389
0.22704	0.004842051
0.22712	0.004225266
0.2272	0.004164949
0.22728	0.004743006
0.22736	0.005568674
0.22744	0.006449807
0.22752	0.007497093
0.2276	0.008176782
0.22768	0.008360531
0.22776	0.008024884
0.22784	0.007564806
0.22792	0.007435912
0.228	0.007649743
0.22808	0.008070976
0.22816	0.008465337
0.22824	0.008616844
0.22832	0.008941148
0.2284	0.009948284
0.22848	0.01081037
0.22856	0.01102861
0.22864	0.01176676
0.22872	0.01172363
0.2288	0.01165103
0.22888	0.01138353
0.22896	0.01083183
0.22904	0.01033732
0.22912	0.01068687
0.2292	0.01176913
0.22928	0.01359666
0.22936	0.01491317
0.22944	0.01525302
0.22952	0.01544718
0.2296	0.01577518
0.22968	0.01526353
0.22976	0.01470185
0.22984	0.01426844
0.22992	0.01376084
0.23	0.0135924
0.23008	0.01395013
0.23016	0.01431288
0.23024	0.01486532
0.23032	0.01515209
0.2304	0.01482876
0.23048	0.01480553
0.23056	0.01472185
0.23064	0.01450999
0.23072	0.01486473
0.2308	0.01501389
0.23088	0.0153548
0.23096	0.01517092
0.23104	0.01425466
0.23112	0.0132132
0.2312	0.01276183
0.23128	0.01253657
0.23136	0.01236016
0.23144	0.01284905
0.23152	0.01347763
0.2316	0.01350771
0.23168	0.0138715
0.23176	0.01459128
0.23184	0.01517195
0.23192	0.01549861
0.232	0.0154846
0.23208	0.01589047
0.23216	0.01650454
0.23224	0.01754284
0.23232	0.01786157
0.2324	0.01810864
0.23248	0.01810499
0.23256	0.01790309
0.23264	0.01797919
0.23272	0.01733646
0.2328	0.01709235
0.23288	0.01728855
0.23296	0.01728658
0.23304	0.01693131
0.23312	0.01598714
0.2332	0.01561876
0.23328	0.01588636
0.23336	0.01567338
0.23344	0.01520507
0.23352	0.0146977
0.2336	0.01394362
0.23368	0.01302477
0.23376	0.01285388
0.23384	0.01266413
0.23392	0.01250471
0.234	0.01293104
0.23408	0.01315846
0.23416	0.01333092
0.23424	0.01363857
0.23432	0.01327759
0.2344	0.01325015
0.23448	0.01262408
0.23456	0.01239008
0.23464	0.01183054
0.23472	0.01089334
0.2348	0.01067298
0.23488	0.01059229
0.23496	0.01073854
0.23504	0.01102283
0.23512	0.01141463
0.2352	0.01186928
0.23528	0.01193709
0.23536	0.0120271
0.23544	0.012254
0.23552	0.01202642
0.2356	0.01193711
0.23568	0.01087561
0.23576	0.009522905
0.23584	0.008026298
0.23592	0.007086453
0.236	0.006571048
0.23608	0.005960829
0.23616	0.005781275
0.23624	0.005588522
0.23632	0.005245759
0.2364	0.004351418
0.23648	0.003883081
0.23656	0.003069161
0.23664	0.002697925
0.23672	0.002300923
0.2368	0.001670894
0.23688	0.001447653
0.23696	0.001278858
0.23704	0.0002737756
0.23712	-0.0006242864
0.2372	-0.001750015
0.23728	-0.002806404
0.23736	-0.003098433
0.23744	-0.002646972
0.23752	-0.002223918
0.2376	-0.002213478
0.23768	-0.001907895
0.23776	-0.002069842
0.23784	-0.002890771
0.23792	-0.003573291
0.238	-0.004238071
0.23808	-0.005189657
0.23816	-0.005508378
0.23824	-0.006171009
0.23832	-0.007096906
0.2384	-0.007860944
0.23848	-0.008697681
0.23856	-0.009565913
0.23864	-0.01053438
0.23872	-0.0113656
0.2388	-0.01243722
0.23888	-0.01294478
0.23896	-0.0134633
0.23904	-0.01376536
0.23912	-0.01405285
0.2392	-0.01367447
0.23928	-0.01337735
0.23936	-0.0134969
0.23944	-0.01366202
0.23952	-0.01369583
0.2396	-0.01333699
0.23968	-0.01333391
0.23976	-0.01320369
0.23984	-0.01320275
0.23992	-0.01320561
0.24	-0.01310125
0.24008	-0.01302293
0.24016	-0.01339473
0.24024	-0.01408379
0.24032	-0.01482778
0.2404	-0.0159266
0.24048	-0.0158901
0.24056	-0.01606661
0.24064	-0.01635803
0.24072	-0.01575077
0.2408	-0.0152677
0.24088	-0.01567422
0.24096	-0.01599894
0.24104	-0.01565258
0.24112	-0.01557176
0.2412	-0.01627189
0.24128	-0.01662227
0.24136	-0.0164209
0.24144	-0.01613925
0.24152	-0.01582051
0.2416	-0.01550141
0.24168	-0.01566416
0.24176	-0.01595263
0.24184	-0.01587833
0.24192	-0.01609701
0.242	-0.01635215
0.24208	-0.01586269
0.24216	-0.01556383
0.24224	-0.01554479
0.24232	-0.01515977
0.2424	-0.01414015
0.24248	-0.01382245
0.24256	-0.01436293
0.24264	-0.01462569
0.24272	-0.01420587
0.2428	-0.01345282
0.24288	-0.01289855
0.24296	-0.01271049
0.24304	-0.01310225
0.24312	-0.01290762
0.2432	-0.01297601
0.24328	-0.01395207
0.24336	-0.01464634
0.24344	-0.01435876
0.24352	-0.01367007
0.2436	-0.0133409
0.24368	-0.01297349
0.24376	-0.0124187
0.24384	-0.01146977
0.24392	-0.01088159
0.244	-0.01049646
0.24408	-0.01056841
0.24416	-0.01079399
0.24424	-0.01107485
0.24432	-0.01104182
0.2444	-0.01116852
0.24448	-0.01112104
0.24456	-0.01145006
0.24464	-0.01128011
0.24472	-0.0108405
0.2448	-0.01034989
0.24488	-0.00934878
0.24496	-0.008973101
0.24504	-0.008369061
0.24512	-0.008065764
0.2452	-0.007591053
0.24528	-0.007316765
0.24536	-0.007002878
0.24544	-0.005965979
0.24552	-0.005192731
0.2456	-0.00487519
0.24568	-0.004459034
0.24576	-0.003650629
0.24584	-0.003152463
0.24592	-0.002785035
0.246	-0.002608995
0.24608	-0.002046671
0.24616	-0.00148408
0.24624	-0.0007118097
0.24632	0.0001234341
0.2464	0.0008792324
0.24648	0.001448401
0.24656	0.001643275
0.24664	0.001679154
0.24672	0.002309962
0.2468	0.002482746
0.24688	0.002382941
0.24696	0.002485742
0.24704	0.001613366
0.24712	0.001109184
0.2472	0.0006696079
0.24728	0.0006226051
0.24736	0.001510808
0.24744	0.002625065
0.24752	0.00336997
0.2476	0.004239787
0.24768	0.00504461
0.24776	0.00605264
0.24784	0.00683693
0.24792	0.007187598
0.248	0.007459524
0.24808	0.007442703
0.24816	0.007341275
0.24824	0.00806699
0.24832	0.009688383
0.2484	0.01113675
0.24848	0.01294998
0.24856	0.01404331
0.24864	0.01472723
0.24872	0.01583572
0.2488	0.01651889
0.24888	0.01687258
0.24896	0.01703634
0.24904	0.01656084
0.24912	0.01608118
0.2492	0.01612912
0.24928	0.01593238
0.24936	0.01584925
0.24944	0.01611486
0.24952	0.01634408
0.2496	0.01636633
0.24968	0.01619632
0.24976	0.01664085
0.24984	0.01646616
0.24992	0.0163311
0.25	0.01587251
0.25008	0.01568087
0.25016	0.01501775
0.25024	0.01471994
0.25032	0.01502554
0.2504	0.01549004
0.25048	0.01597083
0.25056	0.01607362
0.25064	0.01553885
0.25072	0.01461965
0.2508	0.0145571
0.25088	0.01460954
0.25096	0.01478883
0.25104	0.01487849
0.25112	0.01562588
0.2512	0.01624631
0.25128	0.01593471
0.25136	0.01618006
0.25144	0.01652058
0.25152	0.01604976
0.2516	0.01503824
0.25168	0.01460307
0.25176	0.01408408
0.25184	0.01348806
0.25192	0.01281895
0.252	0.01212737
0.25208	0.01145366
0.25216	0.0115035
0.25224	0.01187159
0.25232	0.01202399
0.2524	0.01255961
0.25248	0.01290206
0.25256	0.0125321
0.25264	0.01224863
0.25272	0.01209579
0.2528	0.01158037
0.25288	0.01140143
0.25296	0.01160298
0.25304	0.01121504
0.25312	0.01039938
0.2532	0.01032869
0.25328	0.01099484
0.25336	0.01127238
0.25344	0.01171053
0.25352	0.01202695
0.2536	0.01245265
0.25368	0.01125759
0.25376	0.01072419
0.25384	0.01013101
0.25392	0.008990601
0.254	0.008488851
0.25408	0.007905202
0.25416	0.008022747
0.25424	0.008534549
0.25432	0.008649618
0.2544	0.008272936
0.25448	0.008300212
0.25456	0.008693335
0.25464	0.008223558
0.25472	0.007115641
0.2548	0.006284624
0.25488	0.005860986
0.25496	0.005480269
0.25504	0.005073846
0.25512	0.004374248
0.2552	0.003962932
0.25528	0.003666027
0.25536	0.002638706
0.25544	0.001892909
0.25552	0.001190352
0.2556	0.0004860842
0.25568	0.0003059881
0.25576	-0.0002584483
0.25584	-0.0005706945
0.25592	-0.0008720791
0.256	-0.001304959
0.25608	-0.001927936
0.25616	-0.002427497
0.25624	-0.002717176
0.25632	-0.002684198
0.2564	-0.002627322
0.25648	-0.00226284
0.25656	-0.002236273
0.25664	-0.002640463
0.25672	-0.002746805
0.2568	-0.003613633
0.25688	-0.004788761
0.25696	-0.00539772
0.25704	-0.00530312
0.25712	-0.005170815
0.2572	-0.004765436
0.25728	-0.004782962
0.25736	-0.004461084
0.25744	-0.004358195
0.25752	-0.004517181
0.2576	-0.004367743
0.25768	-0.004119447
0.25776	-0.004292101
0.25784	-0.004432828
0.25792	-0.004558266
0.258	-0.004938546
0.25808	-0.005085082
0.25816	-0.006196253
0.25824	-0.007158095
0.25832	-0.008043949
0.2584	-0.008568452
0.25848	-0.008881725
0.25856	-0.009640522
0.25864	-0.01004469
0.25872	-0.00966883
0.2588	-0.008852989
0.25888	-0.008614105
0.25896	-0.008495886
0.25904	-0.008144312
0.25912	-0.008083903
0.2592	-0.008222327
0.25928	-0.008392559
0.25936	-0.007917339
0.25944	-0.007936732
0.25952	-0.00850087
0.2596	-0.009580557
0.25968	-0.01051475
0.25976	-0.01072295
0.25984	-0.01070459
0.25992	-0.009982884
0.26	-0.009709487
0.26008	-0.01034806
0.26016	-0.01073924
0.26024	-0.01177695
0.26032	-0.01172688
0.2604	-0.01144226
0.26048	-0.01115328
0.26056	-0.01090507
0.26064	-0.01053954
0.26072	-0.01038493
0.2608	-0.0104672
0.26088	-0.009885469
0.26096	-0.00963698
0.26104	-0.009750891
0.26112	-0.009880065
0.2612	-0.009450781
0.26128	-0.00961482
0.26136	-0.009757666
0.26144	-0.009499327
0.26152	-0.009718582
0.2616	-0.01017857
0.26168	-0.01043307
0.26176	-0.01085972
0.26184	-0.01144357
0.26192	-0.01134342
0.262	-0.01109722
0.26208	-0.01159266
0.26216	-0.01226885
0.26224	-0.01229672
0.26232	-0.01186555
0.2624	-0.01173337
0.26248	-0.01158304
0.26256	-0.01138291
0.26264	-0.01123367
0.26272	-0.01112455
0.2628	-0.01098905
0.26288	-0.01052826
0.26296	-0.01007981
0.26304	-0.009768604
0.26312	-0.008910997
0.2632	-0.008278035
0.26328	-0.008295832
0.26336	-0.009200223
0.26344	-0.008816208
0.26352	-0.008055274
0.2636	-0.007344245
0.26368	-0.006694811
0.26376	-0.00627447
0.26384	-0.006895024
0.26392	-0.007591393
0.264	-0.008192506
0.26408	-0.008337239
0.26416	-0.008350886
0.26424	-0.007386425
0.26432	-0.006182603
0.2644	-0.005094508
0.26448	-0.00426909
0.26456	-0.004170818
0.26464	-0.004055167
0.26472	-0.003834769
0.2648	-0.004361557
0.26488	-0.004774844
0.26496	-0.004957681
0.26504	-0.004918046
0.26512	-0.004440964
0.2652	-0.004133913
0.26528	-0.003808484
0.26536	-0.003289935
0.26544	-0.002803978
0.26552	-0.002353653
0.2656	-0.002217163
0.26568	-0.002065134
0.26576	-0.002078308
0.26584	-0.00217615
0.26592	-0.001891096
0.266	-0.001829269
0.26608	-0.0008701297
0.26616	-0.0002421794
0.26624	0.0001076473
0.26632	0.001009893
0.2664	0.00205616
0.26648	0.002739429
0.26656	0.002562655
0.26664	0.002472221
0.26672	0.002030094
0.2668	0.001983201
0.26688	0.002027802
0.26696	0.00159103
0.26704	0.001427196
0.26712	0.001583335
0.2672	0.001757407
0.26728	0.001639184
0.26736	0.002431927
0.26744	0.002752183
0.26752	0.002387741
0.2676	0.002139057
0.26768	0.002377363
0.26776	0.003047674
0.26784	0.002936043
0.26792	0.002570104
0.268	0.002876095
0.26808	0.00285647
0.26816	0.003187009
0.26824	0.003488497
0.26832	0.004323708
0.2684	0.006340348
0.26848	0.007352624
0.26856	0.007833675
0.26864	0.008809052
0.26872	0.01001436
0.2688	0.01053484
0.26888	0.01106356
0.26896	0.01150856
0.26904	0.01141554
0.26912	0.01176799
0.2692	0.01266167
0.26928	0.01396089
0.26936	0.01489152
0.26944	0.01534473
0.26952	0.01572117
0.2696	0.01656846
0.26968	0.01609994
0.26976	0.01564843
0.26984	0.01537994
0.26992	0.01523175
0.27	0.01524881
0.27008	0.01453283
0.27016	0.0138859
0.27024	0.01342453
0.27032	0.01373484
0.2704	0.0138599
0.27048	0.01418126
0.27056	0.01500919
0.27064	0.01557328
0.27072	0.01575442
0.2708	0.01598042
0.27088	0.01694822
0.27096	0.01745174
0.27104	0.01765659
0.27112	0.01797884
0.2712	0.01871294
0.27128	0.01951168
0.27136	0.02004188
0.27144	0.02059081
0.27152	0.02084347
0.2716	0.02006353
0.27168	0.01966032
0.27176	0.01966722
0.27184	0.01935111
0.27192	0.0185617
0.272	0.01797383
0.27208	0.0181219
0.27216	0.01818204
0.27224	0.01791049
0.27232	0.01693869
0.2724	0.01598289
0.27248	0.01541314
0.27256	0.01523672
0.27264	0.015098
0.27272	0.01499426
0.2728	0.01483019
0.27288	0.01463915
0.27296	0.01440753
0.27304	0.01438928
0.27312	0.01444682
0.2732	0.01495638
0.27328	0.01467463
0.27336	0.01438743
0.27344	0.01453503
0.27352	0.01353392
0.2736	0.0126361
0.27368	0.01209161
0.27376	0.01159886
0.27384	0.0107311
0.27392	0.009613513
0.274	0.008992955
0.27408	0.008797648
0.27416	0.008757177
0.27424	0.008336551
0.27432	0.008345253
0.2744	0.007830026
0.27448	0.007121504
0.27456	0.00600284
0.27464	0.005194046
0.27472	0.004463099
0.2748	0.004144966
0.27488	0.004513659
0.27496	0.004079072
0.27504	0.003198244
0.27512	0.002726985
0.2752	0.002142601
0.27528	0.002001486
0.27536	0.001991428
0.27544	0.001627769
0.27552	0.0009863498
0.2756	-0.0002321889
0.27568	-0.0008511854
0.27576	-0.001150321
0.27584	-0.00146232
0.27592	-0.0008062252
0.276	0.0003955575
0.27608	0.0007788052
0.27616	0.0001770174
0.27624	-0.000573486
0.27632	-0.00111072
0.2764	-0.001620253
0.27648	-0.001571535
0.27656	-0.001599177
0.27664	-0.002332377
0.27672	-0.002785318
0.2768	-0.002836231
0.27688	-0.003136335
0.27696	-0.002981211
0.27704	-0.003108737
0.27712	-0.004257686
0.2772	-0.00492197
0.27728	-0.005280473
0.27736	-0.00572105
0.27744	-0.006087507
0.27752	-0.005966099
0.2776	-0.005531591
0.27768	-0.005809061
0.27776	-0.006116814
0.27784	-0.006162645
0.27792	-0.006762992
0.278	-0.006911613
0.27808	-0.007545135
0.27816	-0.008272224
0.27824	-0.008861334
0.27832	-0.009285782
0.2784	-0.009914721
0.27848	-0.01055203
0.27856	-0.0109907
0.27864	-0.01194988
0.27872	-0.01242046
0.2788	-0.0123181
0.27888	-0.01244202
0.27896	-0.01296027
0.27904	-0.01354883
0.27912	-0.01372239
0.2792	-0.01384461
0.27928	-0.01371115
0.27936	-0.0140728
0.27944	-0.01430864
0.27952	-0.01441086
0.2796	-0.01500072
0.27968	-0.01527516
0.27976	-0.01545606
0.27984	-0.01545769
0.27992	-0.01500298
0.28	-0.01410622
0.28008	-0.01345869
0.28016	-0.01326989
0.28024	-0.01340153
0.28032	-0.01390836
0.2804	-0.01432622
0.28048	-0.01407242
0.28056	-0.0137981
0.28064	-0.01345895
0.28072	-0.01358354
0.2808	-0.01420721
0.28088	-0.01418172
0.28096	-0.0144525
0.28104	-0.01498227
0.28112	-0.01560327
0.2812	-0.01605136
0.28128	-0.01625136
0.28136	-0.01617764
0.28144	-0.0164654
0.28152	-0.01689534
0.2816	-0.01701029
0.28168	-0.01702874
0.28176	-0.01758798
0.28184	-0.01775442
0.28192	-0.01744666
0.282	-0.0175938
0.28208	-0.01789853
0.28216	-0.01813488
0.28224	-0.01784577
0.28232	-0.01779781
0.2824	-0.01751202
0.28248	-0.0170674
0.28256	-0.01694408
0.28264	-0.0165126
0.28272	-0.01631366
0.2828	-0.01635607
0.28288	-0.01584428
0.28296	-0.01549396
0.28304	-0.01491281
0.28312	-0.01438166
0.2832	-0.01460061
0.28328	-0.01374334
0.28336	-0.01395995
0.28344	-0.01458337
0.28352	-0.01504749
0.2836	-0.01473698
0.28368	-0.01321283
0.28376	-0.01212787
0.28384	-0.0110278
0.28392	-0.01063591
0.284	-0.00996836
0.28408	-0.009091735
0.28416	-0.008210168
0.28424	-0.007826087
0.28432	-0.00704359
0.2844	-0.006158441
0.28448	-0.005790154
0.28456	-0.004753171
0.28464	-0.004012517
0.28472	-0.003259593
0.2848	-0.002445666
0.28488	-0.001507886
0.28496	-0.0009598224
0.28504	-0.001065114
0.28512	-0.001202388
0.2852	-0.001278663
0.28528	-0.001211496
0.28536	-0.000529569
0.28544	-4.301802e-5
0.28552	0.001106478
0.2856	0.002192843
0.28568	0.001918726
0.28576	0.001620053
0.28584	0.001461587
0.28592	0.00147336
0.286	0.001232276
0.28608	0.0008030797
0.28616	0.001253796
0.28624	0.001866573
0.28632	0.002412554
0.2864	0.002393252
0.28648	0.002895457
0.28656	0.003545194
0.28664	0.004293434
0.28672	0.004592625
0.2868	0.004530418
0.28688	0.003624195
0.28696	0.003009373
0.28704	0.002905403
0.28712	0.002866745
0.2872	0.002636114
0.28728	0.002925766
0.28736	0.003626354
0.28744	0.00424764
0.28752	0.00557724
0.2876	0.00608839
0.28768	0.005942617
0.28776	0.005964856
0.28784	0.006260922
0.28792	0.006623711
0.288	0.007072708
0.28808	0.007524714
0.28816	0.008150362
0.28824	0.009339818
0.28832	0.01023682
0.2884	0.01066414
0.28848	0.01069791
0.28856	0.01017092
0.28864	0.01003046
0.28872	0.00968848
0.2888	0.009100714
0.28888	0.009137157
0.28896	0.009585067
0.28904	0.01022159
0.28912	0.01073159
0.2892	0.01167176
0.28928	0.0124659
0.28936	0.01259951
0.28944	0.01252139
0.28952	0.01169592
0.2896	0.01172767
0.28968	0.01225712
0.28976	0.01232587
0.28984	0.01175607
0.28992	0.01109309
0.29	0.01153374
0.29008	0.01239516
0.29016	0.01295156
0.29024	0.01321156
0.29032	0.01329908
0.2904	0.01347517
0.29048	0.01344176
0.29056	0.01351106
0.29064	0.01374554
0.29072	0.01417694
0.2908	0.0148377
0.29088	0.0151116
0.29096	0.01536952
0.29104	0.0147094
0.29112	0.01451041
0.2912	0.01495552
0.29128	0.01532956
0.29136	0.01528886
0.29144	0.01525936
0.29152	0.01509028
0.2916	0.01479293
0.29168	0.01438149
0.29176	0.01373159
0.29184	0.01333991
0.29192	0.01301478
0.292	0.01305189
0.29208	0.01309132
0.29216	0.01400012
0.29224	0.01467669
0.29232	0.01527756
0.2924	0.01489589
0.29248	0.01390194
0.29256	0.01370822
0.29264	0.01370968
0.29272	0.01336924
0.2928	0.01259031
0.29288	0.01240692
0.29296	0.01216835
0.29304	0.01162826
0.29312	0.0113596
0.2932	0.01129561
0.29328	0.01182477
0.29336	0.01203662
0.29344	0.0121207
0.29352	0.01143829
0.2936	0.01095815
0.29368	0.01114564
0.29376	0.01122133
0.29384	0.01062809
0.29392	0.01049659
0.294	0.0105649
0.29408	0.01032174
0.29416	0.01033347
0.29424	0.009651702
0.29432	0.009008446
0.2944	0.008420849
0.29448	0.008044109
0.29456	0.007440946
0.29464	0.006568914
0.29472	0.005625544
0.2948	0.00518693
0.29488	0.004637314
0.29496	0.003658334
0.29504	0.003749118
0.29512	0.00360085
0.2952	0.002958895
0.29528	0.002112971
0.29536	0.001894581
0.29544	0.001340733
0.29552	0.001072986
0.2956	0.001097587
0.29568	0.001133029
0.29576	0.001065304
0.29584	0.0002365376
0.29592	-0.001002724
0.296	-0.002573915
0.29608	-0.003375303
0.29616	-0.003666624
0.29624	-0.003728325
0.29632	-0.003796647
0.2964	-0.004259717
0.29648	-0.00506854
0.29656	-0.005407884
0.29664	-0.005743697
0.29672	-0.005883131
0.2968	-0.005843898
0.29688	-0.005600971
0.29696	-0.004898895
0.29704	-0.00533272
0.29712	-0.006237318
0.2972	-0.006914185
0.29728	-0.007481108
0.29736	-0.008203245
0.29744	-0.009075258
0.29752	-0.009596439
0.2976	-0.01032959
0.29768	-0.01155766
0.29776	-0.01260351
0.29784	-0.01383192
0.29792	-0.01480827
0.298	-0.01563937
0.29808	-0.01633704
0.29816	-0.01690468
0.29824	-0.01707408
0.29832	-0.01724642
0.2984	-0.01769393
0.29848	-0.01829068
0.29856	-0.01872917
0.29864	-0.01923089
0.29872	-0.01994665
0.2988	-0.02022792
0.29888	-0.01970884
0.29896	-0.01988928
0.29904	-0.020467
0.29912	-0.02090336
0.2992	-0.02092458
0.29928	-0.02079846
0.29936	-0.02053568
0.29944	-0.02007612
0.29952	-0.01961678
0.2996	-0.01981163
0.29968	-0.01969025
0.29976	-0.01942905
0.29984	-0.01882629
0.29992	-0.0184906
0.3	-0.0181985
0.30008	-0.01762559
0.30016	-0.01697725
0.30024	-0.01662588
0.30032	-0.01659466
0.3004	-0.01668817
0.30048	-0.01715395
0.30056	-0.01772624
0.30064	-0.01830985
0.30072	-0.01865321
0.3008	-0.01894019
0.30088	-0.01897828
0.30096	-0.01881053
0.30104	-0.01840257
0.30112	-0.01840697
0.3012	-0.01854545
0.30128	-0.01850295
0.30136	-0.01746934
0.30144	-0.01684118
0.30152	-0.01633077
0.3016	-0.0163007
0.30168	-0.01643739
0.30176	-0.0162697
0.30184	-0.01604088
0.30192	-0.01593267
0.302	-0.01589886
0.30208	-0.01576671
0.30216	-0.01578975
0.30224	-0.0157065
0.30232	-0.01515845
0.3024	-0.01404193
0.30248	-0.01357064
0.30256	-0.0132297
0.30264	-0.01254506
0.30272	-0.01210857
0.3028	-0.01158545
0.30288	-0.01120682
0.30296	-0.01130748
0.30304	-0.01160014
0.30312	-0.01120434
0.3032	-0.01023947
0.30328	-0.008933546
0.30336	-0.007854202
0.30344	-0.007254706
0.30352	-0.007426215
0.3036	-0.007744188
0.30368	-0.007836699
0.30376	-0.007626714
0.30384	-0.007271848
0.30392	-0.006542865
0.304	-0.005723116
0.30408	-0.005513094
0.30416	-0.005956434
0.30424	-0.006453419
0.30432	-0.005628179
0.3044	-0.005153361
0.30448	-0.004826937
0.30456	-0.004006294
0.30464	-0.003571726
0.30472	-0.002860452
0.3048	-0.002454891
0.30488	-0.002158407
0.30496	-0.002479619
0.30504	-0.002833735
0.30512	-0.002769492
0.3052	-0.002612798
0.30528	-0.002536249
0.30536	-0.001577309
0.30544	-0.0009796007
0.30552	-0.0007442497
0.3056	-0.000638896
0.30568	-0.0003055266
0.30576	0.0001892166
0.30584	0.0007841825
0.30592	0.0009851102
0.306	0.0007725389
0.30608	0.0003900983
0.30616	-3.79524e-5
0.30624	0.0004930035
0.30632	0.001535359
0.3064	0.002585473
0.30648	0.004250639
0.30656	0.005692441
0.30664	0.006310457
0.30672	0.00693782
0.3068	0.007566719
0.30688	0.008033139
0.30696	0.008197095
0.30704	0.008503137
0.30712	0.008665733
0.3072	0.00881097
0.30728	0.008897548
0.30736	0.00967562
0.30744	0.01011846
0.30752	0.01011683
0.3076	0.01018822
0.30768	0.01038615
0.30776	0.01037176
0.30784	0.00994311
0.30792	0.009936172
0.308	0.009821885
0.30808	0.009408822
0.30816	0.009369445
0.30824	0.00991349
0.30832	0.009941678
0.3084	0.01019984
0.30848	0.01040645
0.30856	0.01071686
0.30864	0.01153055
0.30872	0.01200137
0.3088	0.01241661
0.30888	0.01297491
0.30896	0.01308703
0.30904	0.01275734
0.30912	0.01294177
0.3092	0.01359724
0.30928	0.01395096
0.30936	0.01396987
0.30944	0.01385061
0.30952	0.01413846
0.3096	0.0143756
0.30968	0.01463383
0.30976	0.014708
0.30984	0.01461383
0.30992	0.01454311
0.31	0.01486837
0.31008	0.014674
0.31016	0.01457762
0.31024	0.01500295
0.31032	0.01540041
0.3104	0.01578898
0.31048	0.01595265
0.31056	0.0162682
0.31064	0.01669546
0.31072	0.01703548
0.3108	0.01705788
0.31088	0.01688439
0.31096	0.01684071
0.31104	0.0168597
0.31112	0.01609074
0.3112	0.01575039
0.31128	0.01611798
0.31136	0.01631489
0.31144	0.01649168
0.31152	0.01609187
0.3116	0.01582211
0.31168	0.01573452
0.31176	0.01517377
0.31184	0.01456732
0.31192	0.01443982
0.312	0.01444168
0.31208	0.01451861
0.31216	0.01436103
0.31224	0.01451277
0.31232	0.01454981
0.3124	0.01477608
0.31248	0.01498153
0.31256	0.01503614
0.31264	0.0146955
0.31272	0.01439986
0.3128	0.01421435
0.31288	0.01365482
0.31296	0.01289718
0.31304	0.012469
0.31312	0.01190856
0.3132	0.0111409
0.31328	0.01044935
0.31336	0.01034836
0.31344	0.01068107
0.31352	0.01107321
0.3136	0.01142288
0.31368	0.01181706
0.31376	0.01116023
0.31384	0.01060598
0.31392	0.01078107
0.314	0.009932374
0.31408	0.008720968
0.31416	0.00816349
0.31424	0.007950434
0.31432	0.00775506
0.3144	0.007974766
0.31448	0.008419973
0.31456	0.007995777
0.31464	0.007111158
0.31472	0.006010123
0.3148	0.005304351
0.31488	0.005605152
0.31496	0.005433995
0.31504	0.00463469
0.31512	0.003845035
0.3152	0.003636694
0.31528	0.003710685
0.31536	0.003310734
0.31544	0.002871975
0.31552	0.002931471
0.3156	0.002726063
0.31568	0.00204057
0.31576	0.002073489
0.31584	0.002324832
0.31592	0.001721401
0.316	0.001028912
0.31608	0.0006678903
0.31616	0.0004229425
0.31624	-0.0005444312
0.31632	-0.001581896
0.3164	-0.002205092
0.31648	-0.003042503
0.31656	-0.003568339
0.31664	-0.003852467
0.31672	-0.003484243
0.3168	-0.003324787
0.31688	-0.003739737
0.31696	-0.00442882
0.31704	-0.004917699
0.31712	-0.005207104
0.3172	-0.005052484
0.31728	-0.004608255
0.31736	-0.004959535
0.31744	-0.005370802
0.31752	-0.006022925
0.3176	-0.006346817
0.31768	-0.006535265
0.31776	-0.007622073
0.31784	-0.008209432
0.31792	-0.008703171
0.318	-0.008807653
0.31808	-0.009424805
0.31816	-0.0102127
0.31824	-0.01017886
0.31832	-0.01014549
0.3184	-0.01031732
0.31848	-0.01072316
0.31856	-0.01152518
0.31864	-0.01204765
0.31872	-0.01258799
0.3188	-0.01331556
0.31888	-0.01369593
0.31896	-0.0139128
0.31904	-0.01359786
0.31912	-0.01363991
0.3192	-0.01382154
0.31928	-0.01437237
0.31936	-0.01419006
0.31944	-0.01347845
0.31952	-0.01250816
0.3196	-0.01192489
0.31968	-0.01160087
0.31976	-0.01194742
0.31984	-0.01174906
0.31992	-0.01174107
0.32	-0.01255669
0.32008	-0.01373248
0.32016	-0.01395804
0.32024	-0.01306438
0.32032	-0.01234596
0.3204	-0.01213364
0.32048	-0.01222847
0.32056	-0.01224124
0.32064	-0.01249325
0.32072	-0.01293419
0.3208	-0.01276024
0.32088	-0.01294205
0.32096	-0.01291933
0.32104	-0.01314953
0.32112	-0.012846
0.3212	-0.01272289
0.32128	-0.0130885
0.32136	-0.01294481
0.32144	-0.01324771
0.32152	-0.01319984
0.3216	-0.01323426
0.32168	-0.01360491
0.32176	-0.01382873
0.32184	-0.0137137
0.32192	-0.01377844
0.322	-0.01379695
0.32208	-0.0136992
0.32216	-0.01367335
0.32224	-0.01386856
0.32232	-0.01434363
0.3224	-0.01466803
0.32248	-0.01395109
0.32256	-0.01335607
0.32264	-0.01395496
0.32272	-0.01502335
0.3228	-0.01567006
0.32288	-0.01618538
0.32296	-0.01656342
0.32304	-0.01629529
0.32312	-0.01629172
0.3232	-0.01684293
0.32328	-0.01709482
0.32336	-0.01766456
0.32344	-0.01757094
0.32352	-0.01685236
0.3236	-0.0162966
0.32368	-0.01625509
0.32376	-0.01551775
0.32384	-0.0146982
0.32392	-0.01372445
0.324	-0.01325913
0.32408	-0.01326976
0.32416	-0.0128605
0.32424	-0.01255645
0.32432	-0.01147863
0.3244	-0.01048199
0.32448	-0.009591417
0.32456	-0.008318318
0.32464	-0.00778918
0.32472	-0.007539824
0.3248	-0.007121768
0.32488	-0.006782283
0.32496	-0.006394404
0.32504	-0.005837068
0.32512	-0.004705344
0.3252	-0.003951994
0.32528	-0.003277835
0.32536	-0.003039335
0.32544	-0.002951145
0.32552	-0.00235369
0.3256	-0.002047504
0.32568	-0.001989615
0.32576	-0.00193267
0.32584	-0.001781012
0.32592	-0.001843648
0.326	-0.00144938
0.32608	-0.0009158431
0.32616	-0.0001440856
0.32624	0.0004984752
0.32632	0.0008223545
0.3264	0.0007292173
0.32648	0.0009563073
0.32656	0.001174584
0.32664	0.001728277
0.32672	0.002638277
0.3268	0.002913679
0.32688	0.003087118
0.32696	0.003683579
0.32704	0.005043821
0.32712	0.00597254
0.3272	0.006858896
0.32728	0.007716269
0.32736	0.008160801
0.32744	0.008670809
0.32752	0.009160796
0.3276	0.009381414
0.32768	0.00957517
0.32776	0.009926783
0.32784	0.01076152
0.32792	0.012
0.328	0.01231271
0.32808	0.01275804
0.32816	0.01302681
0.32824	0.01304394
0.32832	0.01295708
0.3284	0.01392958
0.32848	0.01506617
0.32856	0.01587848
0.32864	0.01663136
0.32872	0.0168824
0.3288	0.01755652
0.32888	0.01838095
0.32896	0.01882364
0.32904	0.01931668
0.32912	0.01970424
0.3292	0.01978649
0.32928	0.01951493
0.32936	0.0194828
0.32944	0.01893215
0.32952	0.01900792
0.3296	0.0193162
0.32968	0.01923378
0.32976	0.01827239
0.32984	0.01694612
0.32992	0.01635707
0.33	0.01665591
0.33008	0.01692427
0.33016	0.01698644
0.33024	0.01755701
0.33032	0.01790523
0.3304	0.01803258
0.33048	0.01768526
0.33056	0.01698215
0.33064	0.01636022
0.33072	0.01562123
0.3308	0.01441772
0.33088	0.01350521
0.33096	0.01263218
0.33104	0.0124319
0.33112	0.01275738
0.3312	0.01301281
0.33128	0.01330136
0.33136	0.01391288
0.33144	0.01384468
0.33152	0.01295245
0.3316	0.01217473
0.33168	0.01102822
0.33176	0.01107539
0.33184	0.01162488
0.33192	0.01199964
0.332	0.01229848
0.33208	0.01279694
0.33216	0.01255105
0.33224	0.01187974
0.33232	0.01141895
0.3324	0.01101355
0.33248	0.01130072
0.33256	0.01166854
0.33264	0.01210965
0.33272	0.01271571
0.3328	0.01340814
0.33288	0.01427637
0.33296	0.01481411
0.33304	0.01469367
0.33312	0.0134748
0.3332	0.01173048
0.33328	0.01059016
0.33336	0.01018052
0.33344	0.009886104
0.33352	0.01008737
0.3336	0.0105182
0.33368	0.01100078
0.33376	0.01137163
0.33384	0.01125925
0.33392	0.01122118
0.334	0.01117331
0.33408	0.01050031
0.33416	0.0102482
0.33424	0.009694013
0.33432	0.008716801
0.3344	0.008173074
0.33448	0.007268098
0.33456	0.006358545
0.33464	0.00552687
0.33472	0.00541099
0.3348	0.005745162
0.33488	0.005486383
0.33496	0.004884935
0.33504	0.004299073
0.33512	0.003739234
0.3352	0.003173961
0.33528	0.002949296
0.33536	0.002806477
0.33544	0.002812139
0.33552	0.002264682
0.3356	0.001937425
0.33568	0.002097722
0.33576	0.001849104
0.33584	0.001534205
0.33592	0.0008000328
0.336	4.775564e-5
0.33608	-0.000760164
0.33616	-0.00119716
0.33624	-0.00173068
0.33632	-0.002590496
0.3364	-0.002778402
0.33648	-0.002724395
0.33656	-0.002902121
0.33664	-0.003757738
0.33672	-0.005510634
0.3368	-0.00684229
0.33688	-0.00752952
0.33696	-0.007789818
0.33704	-0.007883817
0.33712	-0.0083525
0.3372	-0.008245328
0.33728	-0.0079625
0.33736	-0.008322613
0.33744	-0.008984433
0.33752	-0.009820809
0.3376	-0.01008936
0.33768	-0.01083296
0.33776	-0.01153792
0.33784	-0.01149938
0.33792	-0.01215663
0.338	-0.01288854
0.33808	-0.01316252
0.33816	-0.01317841
0.33824	-0.01327292
0.33832	-0.01309831
0.3384	-0.01254889
0.33848	-0.01152419
0.33856	-0.01098592
0.33864	-0.01090608
0.33872	-0.01043207
0.3388	-0.009797144
0.33888	-0.009461269
0.33896	-0.00933894
0.33904	-0.009930135
0.33912	-0.010819
0.3392	-0.0116016
0.33928	-0.01203908
0.33936	-0.0117734
0.33944	-0.01098561
0.33952	-0.01071615
0.3396	-0.0107418
0.33968	-0.01073897
0.33976	-0.01036896
0.33984	-0.01036345
0.33992	-0.01093989
0.34	-0.01110556
0.34008	-0.01104145
0.34016	-0.01151275
0.34024	-0.01232659
0.34032	-0.01304449
0.3404	-0.01361855
0.34048	-0.01364289
0.34056	-0.01400706
0.34064	-0.01467304
0.34072	-0.01508921
0.3408	-0.01526933
0.34088	-0.01541478
0.34096	-0.01597104
0.34104	-0.01610228
0.34112	-0.01616094
0.3412	-0.01664691
0.34128	-0.01703355
0.34136	-0.01699917
0.34144	-0.01678404
0.34152	-0.01740653
0.3416	-0.01714639
0.34168	-0.01697565
0.34176	-0.01743987
0.34184	-0.01717527
0.34192	-0.01664991
0.342	-0.01619998
0.34208	-0.01645512
0.34216	-0.01648607
0.34224	-0.01592797
0.34232	-0.01528088
0.3424	-0.01460036
0.34248	-0.01377429
0.34256	-0.01327624
0.34264	-0.01214035
0.34272	-0.01057488
0.3428	-0.009749215
0.34288	-0.01000378
0.34296	-0.009725908
0.34304	-0.009427036
0.34312	-0.009727737
0.3432	-0.01064041
0.34328	-0.01127311
0.34336	-0.01134626
0.34344	-0.0108669
0.34352	-0.009157743
0.3436	-0.008047698
0.34368	-0.007354228
0.34376	-0.00716373
0.34384	-0.006650462
0.34392	-0.006505623
0.344	-0.006087374
0.34408	-0.005638761
0.34416	-0.005188414
0.34424	-0.004055893
0.34432	-0.00339515
0.3444	-0.003067211
0.34448	-0.002796485
0.34456	-0.00310546
0.34464	-0.002890463
0.34472	-0.0024187
0.3448	-0.001568388
0.34488	-0.0007268176
0.34496	-0.0006749404
0.34504	-0.0003676781
0.34512	0.0005527874
0.3452	0.001508585
0.34528	0.001842242
0.34536	0.001878409
0.34544	0.001801847
0.34552	0.001244609
0.3456	0.0007335058
0.34568	0.0009079886
0.34576	0.001248177
0.34584	0.001521943
0.34592	0.002748429
0.346	0.003822945
0.34608	0.003933602
0.34616	0.003084618
0.34624	0.002681382
0.34632	0.002598925
0.3464	0.002738527
0.34648	0.002837569
0.34656	0.002011217
0.34664	0.001656247
0.34672	0.001503368
0.3468	0.001358755
0.34688	0.0002491422
0.34696	0.0002622243
0.34704	0.0006812997
0.34712	0.0006232539
0.3472	0.0004117443
0.34728	0.0002404817
0.34736	1.259387e-5
0.34744	-0.0006763681
0.34752	-0.001152058
0.3476	-0.0009434119
0.34768	-0.001112532
0.34776	-0.0009212437
0.34784	-0.0003357418
0.34792	-6.119879e-5
0.348	0.0001399154
0.34808	0.0005224445
0.34816	0.001370026
0.34824	0.002056985
0.34832	0.003256823
0.3484	0.004137138
0.34848	0.004829427
0.34856	0.005511886
0.34864	0.006056007
0.34872	0.006170121
0.3488	0.005838876
0.34888	0.005598279
0.34896	0.005168635
0.34904	0.005647558
0.34912	0.007039979
0.3492	0.007200852
0.34928	0.007329217
0.34936	0.007697737
0.34944	0.008182463
0.34952	0.008380602
0.3496	0.009039221
0.34968	0.009968185
0.34976	0.0104757
0.34984	0.01084937
0.34992	0.0109078
0.35	0.01144696
0.35008	0.0120028
0.35016	0.01258552
0.35024	0.01301057
0.35032	0.01339093
0.3504	0.01346481
0.35048	0.01424089
0.35056	0.01452552
0.35064	0.01440367
0.35072	0.01494686
0.3508	0.0150655
0.35088	0.01551075
0.35096	0.01610249
0.35104	0.01666323
0.35112	0.01724242
0.3512	0.01740913
0.35128	0.01741672
0.35136	0.01698527
0.35144	0.01665577
0.35152	0.01655851
0.3516	0.01641907
0.35168	0.01664506
0.35176	0.01648987
0.35184	0.01690013
0.35192	0.01733444
0.352	0.01772605
0.35208	0.01786141
0.35216	0.01771397
0.35224	0.01777691
0.35232	0.01728641
0.3524	0.01679607
0.35248	0.0161575
0.35256	0.01592482
0.35264	0.01567077
0.35272	0.01586779
0.3528	0.01644063
0.35288	0.01731013
0.35296	0.0180731
0.35304	0.01823588
0.35312	0.01805335
0.3532	0.01756546
0.35328	0.0165193
0.35336	0.01576803
0.35344	0.01489185
0.35352	0.01431846
0.3536	0.01416486
0.35368	0.01399791
0.35376	0.01413377
0.35384	0.01487669
0.35392	0.01497916
0.354	0.01405751
0.35408	0.01296578
0.35416	0.01194126
0.35424	0.01088751
0.35432	0.01001708
0.3544	0.009868655
0.35448	0.01028336
0.35456	0.01004155
0.35464	0.009598051
0.35472	0.009577282
0.3548	0.009071426
0.35488	0.008166821
0.35496	0.007771808
0.35504	0.00748704
0.35512	0.006998229
0.3552	0.006646929
0.35528	0.006076992
0.35536	0.005024303
0.35544	0.003929214
0.35552	0.003250418
0.3556	0.003694545
0.35568	0.004227719
0.35576	0.004013149
0.35584	0.003606491
0.35592	0.002760472
0.356	0.001976311
0.35608	0.0009013946
0.35616	-0.0005855008
0.35624	-0.001078353
0.35632	-0.001828409
0.3564	-0.002782352
0.35648	-0.003671604
0.35656	-0.004522873
0.35664	-0.006073835
0.35672	-0.00787822
0.3568	-0.008329225
0.35688	-0.00818111
0.35696	-0.007614898
0.35704	-0.007409942
0.35712	-0.007372275
0.3572	-0.007284952
0.35728	-0.00842028
0.35736	-0.009688365
0.35744	-0.01048888
0.35752	-0.01072398
0.3576	-0.01127719
0.35768	-0.01178466
0.35776	-0.01232537
0.35784	-0.01271613
0.35792	-0.01303969
0.358	-0.01349634
0.35808	-0.01420397
0.35816	-0.0148151
0.35824	-0.01474308
0.35832	-0.01446859
0.3584	-0.01370994
0.35848	-0.01305905
0.35856	-0.01326009
0.35864	-0.01362755
0.35872	-0.01352409
0.3588	-0.01261008
0.35888	-0.01186164
0.35896	-0.0117068
0.35904	-0.0121567
0.35912	-0.01250184
0.3592	-0.0125752
0.35928	-0.01275278
0.35936	-0.01285409
0.35944	-0.01306142
0.35952	-0.01341316
0.3596	-0.01404532
0.35968	-0.01464205
0.35976	-0.01538494
0.35984	-0.01510773
0.35992	-0.01465482
0.36	-0.0139143
0.36008	-0.01305188
0.36016	-0.01218029
0.36024	-0.01158888
0.36032	-0.01208029
0.3604	-0.01216979
0.36048	-0.0115597
0.36056	-0.01113781
0.36064	-0.01211741
0.36072	-0.01332399
0.3608	-0.01398957
0.36088	-0.01422859
0.36096	-0.01386742
0.36104	-0.01389577
0.36112	-0.01426857
0.3612	-0.01447667
0.36128	-0.0141001
0.36136	-0.01378225
0.36144	-0.01355613
0.36152	-0.01346656
0.3616	-0.01308998
0.36168	-0.01185207
0.36176	-0.01138316
0.36184	-0.0110829
0.36192	-0.01063678
0.362	-0.009953802
0.36208	-0.009790979
0.36216	-0.00963175
0.36224	-0.009182238
0.36232	-0.008745259
0.3624	-0.008530132
0.36248	-0.007815323
0.36256	-0.007313873
0.36264	-0.006521465
0.36272	-0.006005244
0.3628	-0.005600487
0.36288	-0.005886793
0.36296	-0.005844388
0.36304	-0.005566152
0.36312	-0.00522106
0.3632	-0.004980181
0.36328	-0.004386241
0.36336	-0.003682044
0.36344	-0.003846044
0.36352	-0.003292976
0.3636	-0.002959859
0.36368	-0.002785994
0.36376	-0.002637917
0.36384	-0.002219054
0.36392	-0.001666087
0.364	-0.001992983
0.36408	-0.002091412
0.36416	-0.002500958
0.36424	-0.002712405
0.36432	-0.003082032
0.3644	-0.003753578
0.36448	-0.004290639
0.36456	-0.004967739
0.36464	-0.005444994
0.36472	-0.006072517
0.3648	-0.006359377
0.36488	-0.006268431
0.36496	-0.005383363
0.36504	-0.004704122
0.36512	-0.003509732
0.3652	-0.003203311
0.36528	-0.003994791
0.36536	-0.004213643
0.36544	-0.003711456
0.36552	-0.003475051
0.3656	-0.002967539
0.36568	-0.002714226
0.36576	-0.002531022
0.36584	-0.001395672
0.36592	-0.0001909465
0.366	0.0006718346
0.36608	0.0007659593
0.36616	0.001064906
0.36624	0.001796158
0.36632	0.001874728
0.3664	0.001918679
0.36648	0.002790355
0.36656	0.003397851
0.36664	0.00348943
0.36672	0.003831732
0.3668	0.004166779
0.36688	0.005020029
0.36696	0.006012477
0.36704	0.006576806
0.36712	0.006718587
0.3672	0.006234119
0.36728	0.005434647
0.36736	0.005458536
0.36744	0.005786723
0.36752	0.006151132
0.3676	0.006971529
0.36768	0.007719326
0.36776	0.008616239
0.36784	0.009039097
0.36792	0.009783459
0.368	0.01005915
0.36808	0.009753867
0.36816	0.009948964
0.36824	0.01020567
0.36832	0.01050607
0.3684	0.01078012
0.36848	0.01116581
0.36856	0.01150945
0.36864	0.01078557
0.36872	0.009950271
0.3688	0.009674882
0.36888	0.009676021
0.36896	0.009797186
0.36904	0.009550955
0.36912	0.009630359
0.3692	0.009367968
0.36928	0.008738427
0.36936	0.008885065
0.36944	0.009097954
0.36952	0.008948703
0.3696	0.00849395
0.36968	0.008402638
0.36976	0.008851756
0.36984	0.009810863
0.36992	0.01067809
0.37	0.01160847
0.37008	0.01232839
0.37016	0.01310429
0.37024	0.01395624
0.37032	0.01491995
0.3704	0.01585935
0.37048	0.01608
0.37056	0.0163647
0.37064	0.01697651
0.37072	0.01762003
0.3708	0.01807559
0.37088	0.01806519
0.37096	0.01813917
0.37104	0.01873203
0.37112	0.01820139
0.3712	0.01787133
0.37128	0.01763615
0.37136	0.01742369
0.37144	0.01744398
0.37152	0.01731423
0.3716	0.01725218
0.37168	0.01762308
0.37176	0.01728258
0.37184	0.01701986
0.37192	0.01680349
0.372	0.01634103
0.37208	0.01628157
0.37216	0.0160088
0.37224	0.01552616
0.37232	0.01573307
0.3724	0.01567312
0.37248	0.0156198
0.37256	0.0158917
0.37264	0.01611489
0.37272	0.01592091
0.3728	0.01584453
0.37288	0.01643997
0.37296	0.01655393
0.37304	0.01563412
0.37312	0.01469801
0.3732	0.01407496
0.37328	0.01323691
0.37336	0.01261167
0.37344	0.01260791
0.37352	0.01219273
0.3736	0.01191143
0.37368	0.01170667
0.37376	0.01111316
0.37384	0.01070909
0.37392	0.01040934
0.374	0.009946743
0.37408	0.009135052
0.37416	0.008774712
0.37424	0.008709883
0.37432	0.008652778
0.3744	0.008567464
0.37448	0.008459889
0.37456	0.008474341
0.37464	0.007996968
0.37472	0.006868919
0.3748	0.006037495
0.37488	0.005917963
0.37496	0.006144234
0.37504	0.006456432
0.37512	0.005923457
0.3752	0.005283645
0.37528	0.005376465
0.37536	0.005849918
0.37544	0.005918337
0.37552	0.006249559
0.3756	0.006438829
0.37568	0.005844885
0.37576	0.005119491
0.37584	0.004315402
0.37592	0.003868277
0.376	0.003128777
0.37608	0.002575645
0.37616	0.001886759
0.37624	0.0009703808
0.37632	-0.0007919922
0.3764	-0.002246497
0.37648	-0.003306884
0.37656	-0.003975966
0.37664	-0.00471385
0.37672	-0.005178512
0.3768	-0.005306992
0.37688	-0.005880928
0.37696	-0.00628129
0.37704	-0.006658644
0.37712	-0.007502247
0.3772	-0.008249729
0.37728	-0.008702338
0.37736	-0.009911948
0.37744	-0.01112823
0.37752	-0.01144904
0.3776	-0.01212621
0.37768	-0.01236339
0.37776	-0.01238456
0.37784	-0.01260337
0.37792	-0.01296413
0.378	-0.01311309
0.37808	-0.01327298
0.37816	-0.01344783
0.37824	-0.01346549
0.37832	-0.01304144
0.3784	-0.01267371
0.37848	-0.01255926
0.37856	-0.01283684
0.37864	-0.0131658
0.37872	-0.01390932
0.3788	-0.0145364
0.37888	-0.01516967
0.37896	-0.01588374
0.37904	-0.0164696
0.37912	-0.0165822
0.3792	-0.016916
0.37928	-0.01773172
0.37936	-0.01833807
0.37944	-0.01867503
0.37952	-0.01899459
0.3796	-0.01952625
0.37968	-0.02006834
0.37976	-0.02025012
0.37984	-0.02057767
0.37992	-0.02072361
0.38	-0.02150544
0.38008	-0.02271188
0.38016	-0.02369638
0.38024	-0.02378779
0.38032	-0.02417418
0.3804	-0.02384219
0.38048	-0.0228794
0.38056	-0.02204387
0.38064	-0.02176588
0.38072	-0.02155444
0.3808	-0.02126069
0.38088	-0.02039519
0.38096	-0.01947038
0.38104	-0.01856196
0.38112	-0.01768802
0.3812	-0.01610413
0.38128	-0.01447301
0.38136	-0.01380594
0.38144	-0.01324975
0.38152	-0.01293641
0.3816	-0.01212023
0.38168	-0.01198831
0.38176	-0.01114004
0.38184	-0.01062502
0.38192	-0.01064195
0.382	-0.01020572
0.38208	-0.01002481
0.38216	-0.009557333
0.38224	-0.008720399
0.38232	-0.007222115
0.3824	-0.006506355
0.38248	-0.006426646
0.38256	-0.006550425
0.38264	-0.006947114
0.38272	-0.007229052
0.3828	-0.006811206
0.38288	-0.006489472
0.38296	-0.005949498
0.38304	-0.005554945
0.38312	-0.005083908
0.3832	-0.004334803
0.38328	-0.00334792
0.38336	-0.002781843
0.38344	-0.002652739
0.38352	-0.002054357
0.3836	-0.001558501
0.38368	-0.001479124
0.38376	-0.001765909
0.38384	-0.001659969
0.38392	-0.0009648858
0.384	3.295316e-5
0.38408	0.0009132329
0.38416	0.0009759242
0.38424	0.0008971125
0.38432	0.001000776
0.3844	0.0008642469
0.38448	0.001731058
0.38456	0.002293339
0.38464	0.002099401
0.38472	0.002159727
0.3848	0.002085173
0.38488	0.001968775
0.38496	0.001577693
0.38504	0.0007873231
0.38512	0.0002213579
0.3852	0.0003270178
0.38528	0.0003505348
0.38536	0.000438671
0.38544	0.0004654386
0.38552	-0.0003032504
0.3856	-0.0006883836
0.38568	-0.000514009
0.38576	-0.0001141285
0.38584	3.373333e-6
0.38592	-0.0001420547
0.386	0.0001572682
0.38608	0.0004112598
0.38616	0.0004995594
0.38624	0.0003488472
0.38632	0.0008269598
0.3864	0.00152353
0.38648	0.001606252
0.38656	0.001269822
0.38664	0.0005513729
0.38672	0.0004421347
0.3868	0.000243414
0.38688	0.0002321525
0.38696	0.0004752061
0.38704	0.0006168588
0.38712	0.000639026
0.3872	0.001036527
0.38728	0.001308077
0.38736	0.001109481
0.38744	0.001603928
0.38752	0.001914296
0.3876	0.002479689
0.38768	0.0027052
0.38776	0.003138755
0.38784	0.003707197
0.38792	0.004056471
0.388	0.004299081
0.38808	0.004625373
0.38816	0.005007001
0.38824	0.005687612
0.38832	0.005871707
0.3884	0.005866918
0.38848	0.005844702
0.38856	0.005741569
0.38864	0.006391631
0.38872	0.007487275
0.3888	0.008583666
0.38888	0.00954497
0.38896	0.009977225
0.38904	0.01008876
0.38912	0.01059761
0.3892	0.01061891
0.38928	0.01077905
0.38936	0.01072903
0.38944	0.01038202
0.38952	0.01013711
0.3896	0.009283165
0.38968	0.008883475
0.38976	0.008855564
0.38984	0.008904186
0.38992	0.00839952
0.39	0.007208006
0.39008	0.00622094
0.39016	0.005751416
0.39024	0.004961127
0.39032	0.004314704
0.3904	0.003641308
0.39048	0.002948917
0.39056	0.002377722
0.39064	0.00212556
0.39072	0.001724396
0.3908	0.001111251
0.39088	0.00040891
0.39096	-0.001100107
0.39104	-0.002204133
0.39112	-0.003014695
0.3912	-0.003786684
0.39128	-0.00418988
0.39136	-0.004393262
0.39144	-0.004874373
0.39152	-0.005544129
0.3916	-0.006225044
0.39168	-0.006917058
0.39176	-0.00677277
0.39184	-0.00687759
0.39192	-0.006734696
0.392	-0.006158211
0.39208	-0.005630132
0.39216	-0.004845503
0.39224	-0.004930458
0.39232	-0.004255121
0.3924	-0.002516071
0.39248	-0.001450736
0.39256	-0.001046672
0.39264	-0.001245769
0.39272	-0.001107671
0.3928	-0.001355099
0.39288	-0.00106725
0.39296	-0.000392355
0.39304	0.0008468404
0.39312	0.002452578
0.3932	0.003688032
0.39328	0.004999149
0.39336	0.005906615
0.39344	0.006726015
0.39352	0.006900016
0.3936	0.007158554
0.39368	0.007742793
0.39376	0.008452471
0.39384	0.008714552
0.39392	0.009049197
0.394	0.009303926
0.39408	0.009284672
0.39416	0.009555357
0.39424	0.009857442
0.39432	0.0101482
0.3944	0.01066768
0.39448	0.01100955
0.39456	0.01010783
0.39464	0.009113234
0.39472	0.008638847
0.3948	0.007775142
0.39488	0.006549716
0.39496	0.005553001
0.39504	0.004699952
0.39512	0.004182419
0.3952	0.003209217
0.39528	0.002769849
0.39536	0.002049028
0.39544	0.001449932
0.39552	0.0006731614
0.3956	-0.0001561209
0.39568	-0.0007534213
0.39576	-0.0009906978
0.39584	-0.0006253129
0.39592	-0.0006058718
0.396	-0.0006098635
0.39608	-0.0007273276
0.39616	-0.0006942904
0.39624	-0.001454263
0.39632	-0.002610288
0.3964	-0.003334206
0.39648	-0.00382826
0.39656	-0.004810606
0.39664	-0.005870005
0.39672	-0.006548309
0.3968	-0.007135531
0.39688	-0.008317177
0.39696	-0.01000093
0.39704	-0.01187386
0.39712	-0.01397842
0.3972	-0.01606186
0.39728	-0.01869157
0.39736	-0.02030125
0.39744	-0.02112848
0.39752	-0.02185106
0.3976	-0.02264743
0.39768	-0.02377645
0.39776	-0.0245464
0.39784	-0.02509721
0.39792	-0.02611912
0.398	-0.02692876
0.39808	-0.02747559
0.39816	-0.02790189
0.39824	-0.02785621
0.39832	-0.02799782
0.3984	-0.02827341
0.39848	-0.02779867
0.39856	-0.02791209
0.39864	-0.02770042
0.39872	-0.02690591
0.3988	-0.0255362
0.39888	-0.02365401
0.39896	-0.02211268
0.39904	-0.02105795
0.39912	-0.01932852
0.3992	-0.01695688
0.39928	-0.01453913
0.39936	-0.01178226
0.39944	-0.008398903
0.39952	-0.005209364
0.3996	-0.002801799
0.39968	-2.870701e-5
0.39976	0.003454099
0.39984	0.006704894
0.39992	0.009756762
0.4	0.01254054
0.40008	0.01460187
0.40016	0.01686184
0.40024	0.01896821
0.40032	0.02090345
0.4004	0.02251858
0.40048	0.02364685
0.40056	0.02399192
0.40064	0.02433544
0.40072	0.02491805
0.4008	0.02548078
0.40088	0.02679357
0.40096	0.02891636
0.40104	0.0307643
0.40112	0.03203368
0.4012	0.0337694
0.40128	0.03459011
0.40136	0.03457624
0.40144	0.03432575
0.40152	0.03426111
0.4016	0.03413079
0.40168	0.03401199
0.40176	0.03387427
0.40184	0.03301435
0.40192	0.03132853
0.402	0.02911159
0.40208	0.02728398
0.40216	0.02569027
0.40224	0.02390163
0.40232	0.0218487
0.4024	0.01983249
0.40248	0.01785834
0.40256	0.01652082
0.40264	0.01483013
0.40272	0.01347718
0.4028	0.01264861
0.40288	0.0121458
0.40296	0.01105715
0.40304	0.01006051
0.40312	0.009489334
0.4032	0.008698341
0.40328	0.007236389
0.40336	0.005241415
0.40344	0.003690189
0.40352	0.002975111
0.4036	0.002491853
0.40368	0.001256225
0.40376	-0.001192675
0.40384	-0.00366152
0.40392	-0.005984287
0.404	-0.007732878
0.40408	-0.009588424
0.40416	-0.01126781
0.40424	-0.01238514
0.40432	-0.01365459
0.4044	-0.0143922
0.40448	-0.01407333
0.40456	-0.01344074
0.40464	-0.01295126
0.40472	-0.01226125
0.4048	-0.01125865
0.40488	-0.01003023
0.40496	-0.009043194
0.40504	-0.007435328
0.40512	-0.005070404
0.4052	-0.002594779
0.40528	0.0003659057
0.40536	0.003758067
0.40544	0.006102961
0.40552	0.007866427
0.4056	0.009141082
0.40568	0.009885105
0.40576	0.01037139
0.40584	0.01062926
0.40592	0.011042
0.406	0.0110738
0.40608	0.0108124
0.40616	0.01012319
0.40624	0.009375191
0.40632	0.008705823
0.4064	0.007876948
0.40648	0.006744594
0.40656	0.005984419
0.40664	0.004466705
0.40672	0.002858246
0.4068	0.0009161034
0.40688	-0.0006576769
0.40696	-0.002132379
0.40704	-0.00404118
0.40712	-0.006282086
0.4072	-0.00789301
0.40728	-0.00860402
0.40736	-0.009123072
0.40744	-0.009580961
0.40752	-0.00990996
0.4076	-0.01043469
0.40768	-0.01118302
0.40776	-0.01149441
0.40784	-0.01115818
0.40792	-0.01035845
0.408	-0.009686701
0.40808	-0.009241803
0.40816	-0.00897025
0.40824	-0.008384313
0.40832	-0.006942515
0.4084	-0.00602866
0.40848	-0.004722432
0.40856	-0.003652869
0.40864	-0.003429215
0.40872	-0.003314352
0.4088	-0.003955242
0.40888	-0.003607776
0.40896	-0.002762436
0.40904	-0.001849983
0.40912	-0.001044908
0.4092	-0.0002806739
0.40928	-0.0002949154
0.40936	-0.0009484069
0.40944	-0.00125671
0.40952	-0.000713077
0.4096	-0.0004770676
0.40968	-0.0003423993
0.40976	0.0005139101
0.40984	0.0009588363
0.40992	0.001217472
0.41	0.00166837
0.41008	0.00257427
0.41016	0.003960442
0.41024	0.005944736
0.41032	0.007572706
0.4104	0.008821679
0.41048	0.009706017
0.41056	0.009880073
0.41064	0.01041536
0.41072	0.01066202
0.4108	0.01145272
0.41088	0.01252507
0.41096	0.01359149
0.41104	0.01422593
0.41112	0.01503944
0.4112	0.01638168
0.41128	0.01766524
0.41136	0.01842023
0.41144	0.01879398
0.41152	0.01934614
0.4116	0.02054422
0.41168	0.02127429
0.41176	0.02170401
0.41184	0.02187666
0.41192	0.02205005
0.412	0.02143453
0.41208	0.02118271
0.41216	0.02125146
0.41224	0.02056299
0.41232	0.02008795
0.4124	0.02052118
0.41248	0.02116697
0.41256	0.0220112
0.41264	0.02279549
0.41272	0.02340113
0.4128	0.02303196
0.41288	0.02247186
0.41296	0.0218697
0.41304	0.0212709
0.41312	0.02194147
0.4132	0.02267272
0.41328	0.02292834
0.41336	0.02325349
0.41344	0.02389279
0.41352	0.02500374
0.4136	0.02566626
0.41368	0.02592119
0.41376	0.0258301
0.41384	0.02548016
0.41392	0.02563058
0.414	0.02557163
0.41408	0.02535015
0.41416	0.02556045
0.41424	0.02518225
0.41432	0.02476975
0.4144	0.02482852
0.41448	0.02420661
0.41456	0.02308551
0.41464	0.02176561
0.41472	0.02129468
0.4148	0.02116708
0.41488	0.02094784
0.41496	0.02102985
0.41504	0.02026743
0.41512	0.01904036
0.4152	0.0184727
0.41528	0.01775554
0.41536	0.01663944
0.41544	0.01537024
0.41552	0.01402197
0.4156	0.01268277
0.41568	0.01163172
0.41576	0.01070342
0.41584	0.01032029
0.41592	0.00954574
0.416	0.007991346
0.41608	0.006058574
0.41616	0.004182009
0.41624	0.002744671
0.41632	0.001560191
0.4164	0.0002839851
0.41648	-0.001084981
0.41656	-0.002292357
0.41664	-0.003576058
0.41672	-0.005622888
0.4168	-0.007808593
0.41688	-0.01011791
0.41696	-0.01222222
0.41704	-0.01494427
0.41712	-0.01750073
0.4172	-0.01989924
0.41728	-0.02255673
0.41736	-0.02520273
0.41744	-0.0278432
0.41752	-0.03031901
0.4176	-0.03283614
0.41768	-0.03492266
0.41776	-0.03655542
0.41784	-0.03799453
0.41792	-0.03911446
0.418	-0.03995855
0.41808	-0.04056435
0.41816	-0.04234977
0.41824	-0.04455882
0.41832	-0.04659703
0.4184	-0.04823393
0.41848	-0.04934159
0.41856	-0.05064894
0.41864	-0.0517267
0.41872	-0.05294132
0.4188	-0.05466723
0.41888	-0.05655847
0.41896	-0.05843753
0.41904	-0.05999874
0.41912	-0.06107718
0.4192	-0.06124782
0.41928	-0.06145555
0.41936	-0.0619136
0.41944	-0.06232498
0.41952	-0.06229173
0.4196	-0.06194134
0.41968	-0.06078473
0.41976	-0.05934654
0.41984	-0.05753545
0.41992	-0.05643873
0.42	-0.05572322
0.42008	-0.05446097
0.42016	-0.05280408
0.42024	-0.051018
0.42032	-0.05012532
0.4204	-0.04915903
0.42048	-0.04805296
0.42056	-0.04645524
0.42064	-0.04434888
0.42072	-0.0416349
0.4208	-0.03883863
0.42088	-0.03557685
0.42096	-0.03191592
0.42104	-0.02926424
0.42112	-0.02718497
0.4212	-0.02477013
0.42128	-0.02189617
0.42136	-0.01884732
0.42144	-0.01597757
0.42152	-0.01274539
0.4216	-0.009126325
0.42168	-0.005199005
0.42176	-0.001814355
0.42184	0.0007714555
0.42192	0.00319315
0.422	0.005746801
0.42208	0.008720854
0.42216	0.01200695
0.42224	0.01547162
0.42232	0.01852315
0.4224	0.02124508
0.42248	0.02308678
0.42256	0.02513005
0.42264	0.02740795
0.42272	0.02845478
0.4228	0.03041529
0.42288	0.03264162
0.42296	0.03494634
0.42304	0.03740656
0.42312	0.03994394
0.4232	0.04242226
0.42328	0.04422388
0.42336	0.04601603
0.42344	0.04801686
0.42352	0.05046545
0.4236	0.05213584
0.42368	0.05332073
0.42376	0.05423011
0.42384	0.05492938
0.42392	0.05603664
0.424	0.05755801
0.42408	0.05868946
0.42416	0.05982903
0.42424	0.06020996
0.42432	0.06134247
0.4244	0.06287535
0.42448	0.06383962
0.42456	0.06437702
0.42464	0.06425172
0.42472	0.06386567
0.4248	0.06340713
0.42488	0.06234001
0.42496	0.06049019
0.42504	0.05805397
0.42512	0.05506361
0.4252	0.05192015
0.42528	0.0481702
0.42536	0.04446275
0.42544	0.04077772
0.42552	0.03641665
0.4256	0.03301663
0.42568	0.02970916
0.42576	0.0260563
0.42584	0.02198211
0.42592	0.01759231
0.426	0.01421462
0.42608	0.01142811
0.42616	0.009369217
0.42624	0.007470913
0.42632	0.005513205
0.4264	0.003184611
0.42648	0.001027878
0.42656	-0.000615394
0.42664	-0.002276758
0.42672	-0.003840992
0.4268	-0.006078636
0.42688	-0.008235895
0.42696	-0.01034517
0.42704	-0.01272679
0.42712	-0.01510531
0.4272	-0.01726572
0.42728	-0.01896619
0.42736	-0.01971549
0.42744	-0.02039209
0.42752	-0.02122707
0.4276	-0.02322324
0.42768	-0.02525569
0.42776	-0.02753658
0.42784	-0.03038346
0.42792	-0.03283731
0.428	-0.03557578
0.42808	-0.03800037
0.42816	-0.04025945
0.42824	-0.0426481
0.42832	-0.04489209
0.4284	-0.04667283
0.42848	-0.04864327
0.42856	-0.05007351
0.42864	-0.05111767
0.42872	-0.05145945
0.4288	-0.05148088
0.42888	-0.05126937
0.42896	-0.05058322
0.42904	-0.04907209
0.42912	-0.04750992
0.4292	-0.0450457
0.42928	-0.04255119
0.42936	-0.04058974
0.42944	-0.03836568
0.42952	-0.03610475
0.4296	-0.03357768
0.42968	-0.03149309
0.42976	-0.02931914
0.42984	-0.02738316
0.42992	-0.02595489
0.43	-0.02477005
0.43008	-0.02345278
0.43016	-0.02130301
0.43024	-0.01946351
0.43032	-0.01801404
0.4304	-0.01652527
0.43048	-0.01534538
0.43056	-0.01403326
0.43064	-0.01261743
0.43072	-0.01078825
0.4308	-0.009343563
0.43088	-0.008385572
0.43096	-0.00777318
0.43104	-0.006561146
0.43112	-0.004994759
0.4312	-0.003965461
0.43128	-0.002161307
0.43136	-0.0005209327
0.43144	0.0004984901
0.43152	0.001542822
0.4316	0.002823652
0.43168	0.00463505
0.43176	0.006248789
0.43184	0.00683207
0.43192	0.007251729
0.432	0.007797622
0.43208	0.008780643
0.43216	0.009648317
0.43224	0.009789717
0.43232	0.009989148
0.4324	0.01035208
0.43248	0.01076141
0.43256	0.01117532
0.43264	0.0121084
0.43272	0.0129722
0.4328	0.01275034
0.43288	0.01238128
0.43296	0.01220425
0.43304	0.01118404
0.43312	0.01032084
0.4332	0.009966763
0.43328	0.00983644
0.43336	0.009834871
0.43344	0.009774309
0.43352	0.01013079
0.4336	0.009787327
0.43368	0.009756363
0.43376	0.009867383
0.43384	0.01000214
0.43392	0.009914554
0.434	0.01009988
0.43408	0.009629885
0.43416	0.01015114
0.43424	0.01052131
0.43432	0.01079889
0.4344	0.0111238
0.43448	0.01136916
0.43456	0.01276423
0.43464	0.01410151
0.43472	0.01477301
0.4348	0.0148283
0.43488	0.01471831
0.43496	0.01348338
0.43504	0.01193697
0.43512	0.01080653
0.4352	0.009970463
0.43528	0.009518197
0.43536	0.008531976
0.43544	0.007557925
0.43552	0.006374637
0.4356	0.004945213
0.43568	0.004005059
0.43576	0.003231768
0.43584	0.003534728
0.43592	0.004362175
0.436	0.005482716
0.43608	0.006043955
0.43616	0.005399486
0.43624	0.004795591
0.43632	0.00458846
0.4364	0.003148162
0.43648	0.002107191
0.43656	0.001362931
0.43664	0.0002178105
0.43672	-0.0005617458
0.4368	-0.0007942237
0.43688	-0.0007498866
0.43696	-0.000287525
0.43704	-0.000285501
0.43712	-0.0009954049
0.4372	-0.001297027
0.43728	-0.00183116
0.43736	-0.002384534
0.43744	-0.003040953
0.43752	-0.003558553
0.4376	-0.003900722
0.43768	-0.004168747
0.43776	-0.004086688
0.43784	-0.0041032
0.43792	-0.0041258
0.438	-0.004338348
0.43808	-0.004818863
0.43816	-0.005604261
0.43824	-0.005920616
0.43832	-0.006379642
0.4384	-0.00576776
0.43848	-0.005102126
0.43856	-0.004652012
0.43864	-0.004080094
0.43872	-0.003449165
0.4388	-0.003582571
0.43888	-0.003712888
0.43896	-0.0031114
0.43904	-0.002085262
0.43912	-0.001090867
0.4392	-0.000297796
0.43928	0.0003103594
0.43936	0.0001666755
0.43944	-0.0001014233
0.43952	0.0006070978
0.4396	0.000806098
0.43968	0.001213985
0.43976	0.001404343
0.43984	0.0005440495
0.43992	0.0001521394
0.44	-0.0006386123
0.44008	-0.001228705
0.44016	-0.001275459
0.44024	-0.001789801
0.44032	-0.003008529
0.4404	-0.004018402
0.44048	-0.004847341
0.44056	-0.005619474
0.44064	-0.006542399
0.44072	-0.008066444
0.4408	-0.009832418
0.44088	-0.01189167
0.44096	-0.01332394
0.44104	-0.01429075
0.44112	-0.01496125
0.4412	-0.01612017
0.44128	-0.01832575
0.44136	-0.02097128
0.44144	-0.02247749
0.44152	-0.02403788
0.4416	-0.0257678
0.44168	-0.02714638
0.44176	-0.02806815
0.44184	-0.02882055
0.44192	-0.02916075
0.442	-0.02866095
0.44208	-0.02796169
0.44216	-0.02705931
0.44224	-0.0261872
0.44232	-0.02565061
0.4424	-0.02385397
0.44248	-0.02228376
0.44256	-0.02045413
0.44264	-0.01873988
0.44272	-0.01671381
0.4428	-0.01489337
0.44288	-0.01334047
0.44296	-0.01193075
0.44304	-0.01057336
0.44312	-0.009080647
0.4432	-0.007524018
0.44328	-0.006409315
0.44336	-0.005359374
0.44344	-0.004432061
0.44352	-0.004395731
0.4436	-0.004140676
0.44368	-0.004260416
0.44376	-0.004030975
0.44384	-0.004232425
0.44392	-0.005281141
0.444	-0.005505334
0.44408	-0.005790228
0.44416	-0.006053327
0.44424	-0.005777884
0.44432	-0.005475716
0.4444	-0.005056526
0.44448	-0.004089896
0.44456	-0.002929776
0.44464	-0.002031557
0.44472	-0.0009377492
0.4448	2.405556e-5
0.44488	0.001065228
0.44496	0.001817888
0.44504	0.001563267
0.44512	0.001510201
0.4452	0.001867822
0.44528	0.001608451
0.44536	0.001255636
0.44544	0.001196909
0.44552	0.002090152
0.4456	0.003002087
0.44568	0.004239299
0.44576	0.005514255
0.44584	0.007055692
0.44592	0.008130419
0.446	0.009102114
0.44608	0.0104623
0.44616	0.01193414
0.44624	0.01389026
0.44632	0.01536765
0.4464	0.01662387
0.44648	0.01678282
0.44656	0.01695882
0.44664	0.01822292
0.44672	0.01939349
0.4468	0.02042235
0.44688	0.02225125
0.44696	0.02348682
0.44704	0.02437623
0.44712	0.02567549
0.4472	0.02705837
0.44728	0.02848492
0.44736	0.02958819
0.44744	0.03095741
0.44752	0.03251744
0.4476	0.03305633
0.44768	0.0332389
0.44776	0.03300218
0.44784	0.03259277
0.44792	0.03219339
0.448	0.03161404
0.44808	0.03035925
0.44816	0.02914087
0.44824	0.02759689
0.44832	0.02601572
0.4484	0.02475654
0.44848	0.02340258
0.44856	0.02226016
0.44864	0.02086943
0.44872	0.02011647
0.4488	0.01860836
0.44888	0.01646853
0.44896	0.01506205
0.44904	0.01345834
0.44912	0.01185031
0.4492	0.01052921
0.44928	0.009970414
0.44936	0.009409432
0.44944	0.008405318
0.44952	0.007291938
0.4496	0.005326776
0.44968	0.003849832
0.44976	0.002618079
0.44984	0.002308807
0.44992	0.00217848
0.45	0.0018812
0.45008	0.001887902
0.45016	0.002250539
0.45024	0.002611319
0.45032	0.003126895
0.4504	0.002639723
0.45048	0.001945867
0.45056	0.001983318
0.45064	0.001483729
0.45072	0.0008135787
0.4508	0.0005874846
0.45088	0.0006533824
0.45096	0.0001734124
0.45104	-0.0007715859
0.45112	-0.001431749
0.4512	-0.001851172
0.45128	-0.002376776
0.45136	-0.003271959
0.45144	-0.004149146
0.45152	-0.004645617
0.4516	-0.004141325
0.45168	-0.004009795
0.45176	-0.004446025
0.45184	-0.004612536
0.45192	-0.005463529
0.452	-0.006722485
0.45208	-0.006920746
0.45216	-0.006618333
0.45224	-0.006749719
0.45232	-0.007354995
0.4524	-0.008279416
0.45248	-0.009523338
0.45256	-0.0104716
0.45264	-0.01135167
0.45272	-0.01179049
0.4528	-0.01156614
0.45288	-0.01062742
0.45296	-0.01015849
0.45304	-0.01018861
0.45312	-0.01008035
0.4532	-0.01023853
0.45328	-0.01056788
0.45336	-0.009916816
0.45344	-0.0100001
0.45352	-0.01087501
0.4536	-0.01136628
0.45368	-0.01156246
0.45376	-0.01184505
0.45384	-0.01169396
0.45392	-0.01064589
0.454	-0.009336421
0.45408	-0.007577197
0.45416	-0.007432346
0.45424	-0.007634344
0.45432	-0.00750102
0.4544	-0.006962699
0.45448	-0.006216784
0.45456	-0.005044534
0.45464	-0.003856794
0.45472	-0.002633793
0.4548	-0.001116956
0.45488	0.0001805639
0.45496	0.001567795
0.45504	0.00257654
0.45512	0.002631808
0.4552	0.003523757
0.45528	0.004723799
0.45536	0.005244925
0.45544	0.006255797
0.45552	0.0068458
0.4556	0.007340344
0.45568	0.007258068
0.45576	0.007326749
0.45584	0.007281017
0.45592	0.007149194
0.456	0.007259971
0.45608	0.007426935
0.45616	0.007863206
0.45624	0.008179041
0.45632	0.008409075
0.4564	0.008090471
0.45648	0.007224421
0.45656	0.006561664
0.45664	0.006241381
0.45672	0.005891688
0.4568	0.005398935
0.45688	0.005392162
0.45696	0.004298435
0.45704	0.003523308
0.45712	0.003347134
0.4572	0.002528748
0.45728	0.002005735
0.45736	0.0009160478
0.45744	-0.0002140478
0.45752	-0.0008324573
0.4576	-0.001879136
0.45768	-0.002988762
0.45776	-0.003861818
0.45784	-0.004463301
0.45792	-0.004981005
0.458	-0.005775413
0.45808	-0.006446301
0.45816	-0.007163604
0.45824	-0.007054091
0.45832	-0.007272247
0.4584	-0.007845815
0.45848	-0.008139846
0.45856	-0.008471537
0.45864	-0.008195908
0.45872	-0.007744566
0.4588	-0.007266832
0.45888	-0.007019822
0.45896	-0.007351124
0.45904	-0.007665297
0.45912	-0.007989828
0.4592	-0.008415743
0.45928	-0.008582953
0.45936	-0.00823212
0.45944	-0.007547658
0.45952	-0.007118193
0.4596	-0.006767998
0.45968	-0.005957588
0.45976	-0.005248739
0.45984	-0.004704681
0.45992	-0.004568514
0.46	-0.004454263
0.46008	-0.005064512
0.46016	-0.006650817
0.46024	-0.007011376
0.46032	-0.007254452
0.4604	-0.007492662
0.46048	-0.007763737
0.46056	-0.007739677
0.46064	-0.006945543
0.46072	-0.006537164
0.4608	-0.006902971
0.46088	-0.007387214
0.46096	-0.007575412
0.46104	-0.007637529
0.46112	-0.008071952
0.4612	-0.008510835
0.46128	-0.009067245
0.46136	-0.009878873
0.46144	-0.01000145
0.46152	-0.01053389
0.4616	-0.01129342
0.46168	-0.01143683
0.46176	-0.01146802
0.46184	-0.01108423
0.46192	-0.0113093
0.462	-0.01114742
0.46208	-0.01139688
0.46216	-0.01131269
0.46224	-0.010954
0.46232	-0.01057235
0.4624	-0.01088822
0.46248	-0.01138341
0.46256	-0.0114147
0.46264	-0.01167836
0.46272	-0.01150605
0.4628	-0.01100478
0.46288	-0.01041796
0.46296	-0.0100964
0.46304	-0.009636012
0.46312	-0.009503098
0.4632	-0.009111839
0.46328	-0.008778916
0.46336	-0.00827915
0.46344	-0.007545329
0.46352	-0.006962345
0.4636	-0.006296666
0.46368	-0.0060978
0.46376	-0.005990621
0.46384	-0.00610362
0.46392	-0.005796042
0.464	-0.00520275
0.46408	-0.004860727
0.46416	-0.0045834
0.46424	-0.004414166
0.46432	-0.004441001
0.4644	-0.003813134
0.46448	-0.003112021
0.46456	-0.002864737
0.46464	-0.002880146
0.46472	-0.003142658
0.4648	-0.002762897
0.46488	-0.00212042
0.46496	-0.001891432
0.46504	-0.0016836
0.46512	-0.0008712709
0.4652	0.0001671499
0.46528	0.001378804
0.46536	0.002197089
0.46544	0.002701026
0.46552	0.003442262
0.4656	0.003698402
0.46568	0.003889716
0.46576	0.003763696
0.46584	0.003964551
0.46592	0.004005468
0.466	0.004344959
0.46608	0.004836032
0.46616	0.005210153
0.46624	0.00574164
0.46632	0.006318084
0.4664	0.006764393
0.46648	0.007261721
0.46656	0.007808886
0.46664	0.008766768
0.46672	0.0092689
0.4668	0.009236943
0.46688	0.009919056
0.46696	0.01056599
0.46704	0.01055707
0.46712	0.01080848
0.4672	0.01048255
0.46728	0.009913298
0.46736	0.009234071
0.46744	0.008841658
0.46752	0.009210341
0.4676	0.009411911
0.46768	0.009620725
0.46776	0.009404729
0.46784	0.009346382
0.46792	0.009637051
0.468	0.00950133
0.46808	0.009304125
0.46816	0.009841295
0.46824	0.009900246
0.46832	0.009917079
0.4684	0.01094862
0.46848	0.01171851
0.46856	0.01239154
0.46864	0.01302043
0.46872	0.01384237
0.4688	0.0146914
0.46888	0.01419982
0.46896	0.01361232
0.46904	0.01404648
0.46912	0.01508503
0.4692	0.01543148
0.46928	0.01636029
0.46936	0.01709879
0.46944	0.01820819
0.46952	0.01941752
0.4696	0.02020879
0.46968	0.02027708
0.46976	0.02024507
0.46984	0.0204329
0.46992	0.02076736
0.47	0.02134722
0.47008	0.02104775
0.47016	0.01988602
0.47024	0.01896237
0.47032	0.0181864
0.4704	0.01810544
0.47048	0.0182788
0.47056	0.0188011
0.47064	0.01966712
0.47072	0.0197573
0.4708	0.01951611
0.47088	0.01926286
0.47096	0.01952995
0.47104	0.01924922
0.47112	0.01865105
0.4712	0.01821303
0.47128	0.01774391
0.47136	0.01746519
0.47144	0.01709951
0.47152	0.01730089
0.4716	0.01733374
0.47168	0.01691283
0.47176	0.01620071
0.47184	0.0162982
0.47192	0.01594225
0.472	0.01559419
0.47208	0.01660978
0.47216	0.01714801
0.47224	0.01787507
0.47232	0.01800051
0.4724	0.01813758
0.47248	0.01851785
0.47256	0.0193807
0.47264	0.02056579
0.47272	0.02055396
0.4728	0.02003466
0.47288	0.02007109
0.47296	0.02044712
0.47304	0.02023645
0.47312	0.02043626
0.4732	0.02024801
0.47328	0.01985576
0.47336	0.01902943
0.47344	0.0180101
0.47352	0.01740149
0.4736	0.01729477
0.47368	0.0165822
0.47376	0.01593992
0.47384	0.0152821
0.47392	0.01487271
0.474	0.01538231
0.47408	0.01576992
0.47416	0.01576308
0.47424	0.01479445
0.47432	0.0137637
0.4744	0.01275396
0.47448	0.01210638
0.47456	0.01202752
0.47464	0.01140842
0.47472	0.01111606
0.4748	0.01088814
0.47488	0.01115476
0.47496	0.01088893
0.47504	0.01038205
0.47512	0.01033641
0.4752	0.01108092
0.47528	0.01177577
0.47536	0.01176525
0.47544	0.01135441
0.47552	0.01077374
0.4756	0.009957572
0.47568	0.008893479
0.47576	0.007908276
0.47584	0.00698277
0.47592	0.005644354
0.476	0.004389218
0.47608	0.002907831
0.47616	0.001547396
0.47624	5.01073e-5
0.47632	-0.001254489
0.4764	-0.002213739
0.47648	-0.00327143
0.47656	-0.003636859
0.47664	-0.003554727
0.47672	-0.003538386
0.4768	-0.004101205
0.47688	-0.004969099
0.47696	-0.004884129
0.47704	-0.005160643
0.47712	-0.00522334
0.4772	-0.004764321
0.47728	-0.004672969
0.47736	-0.005627339
0.47744	-0.006416896
0.47752	-0.006453519
0.4776	-0.0066787
0.47768	-0.007142068
0.47776	-0.007670413
0.47784	-0.00859535
0.47792	-0.009773746
0.478	-0.01107425
0.47808	-0.01265999
0.47816	-0.01510457
0.47824	-0.01686521
0.47832	-0.01791136
0.4784	-0.01943748
0.47848	-0.02033806
0.47856	-0.02092037
0.47864	-0.02194275
0.47872	-0.02338728
0.4788	-0.02431258
0.47888	-0.02401564
0.47896	-0.02417918
0.47904	-0.02417208
0.47912	-0.02408933
0.4792	-0.02431609
0.47928	-0.02448619
0.47936	-0.02518166
0.47944	-0.02585174
0.47952	-0.02634648
0.4796	-0.02643992
0.47968	-0.02700699
0.47976	-0.02772041
0.47984	-0.0285424
0.47992	-0.02889819
0.48	-0.02807827
0.48008	-0.02744032
0.48016	-0.02720649
0.48024	-0.0276029
0.48032	-0.02773884
0.4804	-0.02792208
0.48048	-0.02723697
0.48056	-0.02681449
0.48064	-0.02717914
0.48072	-0.0275798
0.4808	-0.02816084
0.48088	-0.0290572
0.48096	-0.02960464
0.48104	-0.02956851
0.48112	-0.02942158
0.4812	-0.02917808
0.48128	-0.02838097
0.48136	-0.0276577
0.48144	-0.0269263
0.48152	-0.02668735
0.4816	-0.02714635
0.48168	-0.02781491
0.48176	-0.02752679
0.48184	-0.02691014
0.48192	-0.02575092
0.482	-0.02444681
0.48208	-0.02318994
0.48216	-0.02240355
0.48224	-0.02153939
0.48232	-0.02033466
0.4824	-0.01927084
0.48248	-0.01881316
0.48256	-0.01830363
0.48264	-0.01754466
0.48272	-0.01656005
0.4828	-0.01563594
0.48288	-0.01563115
0.48296	-0.01606132
0.48304	-0.01570901
0.48312	-0.01509153
0.4832	-0.01352141
0.48328	-0.01242686
0.48336	-0.01208503
0.48344	-0.01235182
0.48352	-0.01275439
0.4836	-0.01274861
0.48368	-0.01238532
0.48376	-0.01144166
0.48384	-0.01051141
0.48392	-0.009497126
0.484	-0.009360065
0.48408	-0.009159452
0.48416	-0.008057648
0.48424	-0.007078126
0.48432	-0.005646775
0.4844	-0.00451668
0.48448	-0.00335792
0.48456	-0.002509017
0.48464	-0.001920442
0.48472	-0.001378948
0.4848	-0.000505307
0.48488	0.0005290167
0.48496	0.001061375
0.48504	0.002232428
0.48512	0.002700907
0.4852	0.002846817
0.48528	0.002445298
0.48536	0.002476321
0.48544	0.003019288
0.48552	0.003395371
0.4856	0.003604206
0.48568	0.003612505
0.48576	0.00379119
0.48584	0.003732408
0.48592	0.004610433
0.486	0.004320627
0.48608	0.004115783
0.48616	0.004424636
0.48624	0.004042597
0.48632	0.004668069
0.4864	0.005522265
0.48648	0.006146874
0.48656	0.005922096
0.48664	0.00617841
0.48672	0.006641849
0.4868	0.006473557
0.48688	0.005949759
0.48696	0.005600621
0.48704	0.005404308
0.48712	0.005220578
0.4872	0.006024248
0.48728	0.006846444
0.48736	0.007645036
0.48744	0.008266981
0.48752	0.00881806
0.4876	0.009665796
0.48768	0.01021908
0.48776	0.0107424
0.48784	0.01134611
0.48792	0.01120985
0.488	0.01102665
0.48808	0.01060374
0.48816	0.01052477
