Source File Name:	Scan
Signal:	Time - Ref2 Voltage - Samples

Time	Time Signal
[ s ]	[ V ]
0	0.006843275
0.0002	0.005054675
0.0004	0.004771136
0.0006	0.005426794
0.0008	0.004264944
0.001	0.002043745
0.0012	0.001945505
0.0014	-0.0005667862
0.0016	-0.003434512
0.0018	-0.005892622
0.002	-0.006223119
0.0022	-0.006166552
0.0024	-0.006790935
0.0026	-0.008513664
0.0028	-0.01046849
0.003	-0.01118881
0.0032	-0.01436297
0.0034	-0.01390193
0.0036	-0.01310684
0.0038	-0.01601522
0.004	-0.01613019
0.0042	-0.01742608
0.0044	-0.01909686
0.0046	-0.01976712
0.0048	-0.01915417
0.005	-0.01867857
0.0052	-0.01774523
0.0054	-0.01949101
0.0056	-0.02025782
0.0058	-0.01977409
0.006	-0.01904853
0.0062	-0.01915826
0.0064	-0.02013581
0.0066	-0.01944062
0.0068	-0.02032558
0.007	-0.02033486
0.0072	-0.01921619
0.0074	-0.01940332
0.0076	-0.01802286
0.0078	-0.01681232
0.008	-0.01670232
0.0082	-0.01590766
0.0084	-0.01503449
0.0086	-0.01490287
0.0088	-0.01294939
0.009	-0.01243065
0.0092	-0.01311001
0.0094	-0.01232904
0.0096	-0.01178013
0.0098	-0.01392443
0.01	-0.01567267
0.0102	-0.01394052
0.0104	-0.01246924
0.0106	-0.01217231
0.0108	-0.01112426
0.011	-0.008587288
0.0112	-0.005796509
0.0114	-0.004671431
0.0116	-0.004536807
0.0118	-0.00250918
0.012	-0.0002608378
0.0122	0.002412233
0.0124	0.006259247
0.0126	0.007032377
0.0128	0.005917716
0.013	0.006704038
0.0132	0.006248644
0.0134	0.005778975
0.0136	0.005572703
0.0138	0.004704563
0.014	0.004730945
0.0142	0.005948627
0.0144	0.007593781
0.0146	0.008078498
0.0148	0.009136958
0.015	0.01284838
0.0152	0.01422864
0.0154	0.01426974
0.0156	0.015729
0.0158	0.01802436
0.016	0.01939397
0.0162	0.02037042
0.0164	0.02112646
0.0166	0.02307498
0.0168	0.02364335
0.017	0.02289499
0.0172	0.02282372
0.0174	0.02361851
0.0176	0.02366641
0.0178	0.02366737
0.018	0.0237068
0.0182	0.02235811
0.0184	0.0214127
0.0186	0.02128368
0.0188	0.01944735
0.019	0.0178907
0.0192	0.01625263
0.0194	0.01496045
0.0196	0.01546566
0.0198	0.01588631
0.02	0.01367286
0.0202	0.01071228
0.0204	0.008131588
0.0206	0.005869939
0.0208	0.005570822
0.021	0.003848873
0.0212	0.002221368
0.0214	0.001016148
0.0216	-0.0001687637
0.0218	-0.0006327755
0.022	-0.001341897
0.0222	-0.002512693
0.0224	-0.0047507
0.0226	-0.005761109
0.0228	-0.007117757
0.023	-0.01010057
0.0232	-0.01200821
0.0234	-0.01177039
0.0236	-0.01310629
0.0238	-0.01499655
0.024	-0.01752076
0.0242	-0.01850387
0.0244	-0.01874223
0.0246	-0.01950026
0.0248	-0.02111784
0.025	-0.02056573
0.0252	-0.02211147
0.0254	-0.02278767
0.0256	-0.0230798
0.0258	-0.02401397
0.026	-0.0241394
0.0262	-0.0248668
0.0264	-0.02623722
0.0266	-0.02652012
0.0268	-0.02424866
0.027	-0.02301868
0.0272	-0.02358097
0.0274	-0.02432417
0.0276	-0.02446211
0.0278	-0.02378944
0.028	-0.02332444
0.0282	-0.02279761
0.0284	-0.02215636
0.0286	-0.02046939
0.0288	-0.01882663
0.029	-0.01786541
0.0292	-0.01662163
0.0294	-0.01427048
0.0296	-0.01246762
0.0298	-0.01251276
0.03	-0.01081715
0.0302	-0.00970431
0.0304	-0.008462288
0.0306	-0.006950343
0.0308	-0.006261269
0.031	-0.00350395
0.0312	-2.014765e-5
0.0314	0.002489198
0.0316	0.002732667
0.0318	0.00414654
0.032	0.006427092
0.0322	0.008663167
0.0324	0.01198505
0.0326	0.01618851
0.0328	0.01836019
0.033	0.01811062
0.0332	0.0187667
0.0334	0.02063831
0.0336	0.02232406
0.0338	0.02342718
0.034	0.02552899
0.0342	0.02535654
0.0344	0.02433699
0.0346	0.02504547
0.0348	0.02445485
0.035	0.02239808
0.0352	0.02084152
0.0354	0.01972916
0.0356	0.01857808
0.0358	0.01691007
0.036	0.01426753
0.0362	0.01333835
0.0364	0.01287476
0.0366	0.01289208
0.0368	0.01408052
0.037	0.01339352
0.0372	0.01035523
0.0374	0.01035747
0.0376	0.01024769
0.0378	0.01128802
0.038	0.01188037
0.0382	0.01071262
0.0384	0.009891682
0.0386	0.008462149
0.0388	0.00753891
0.039	0.008588507
0.0392	0.00971126
0.0394	0.008844471
0.0396	0.008859336
0.0398	0.006219287
0.04	0.004916681
0.0402	0.003702863
0.0404	0.003690504
0.0406	0.004448428
0.0408	0.004581968
0.041	0.003454682
0.0412	0.004036939
0.0414	0.004103685
0.0416	0.00264448
0.0418	0.002173053
0.042	0.0008476407
0.0422	-0.00054083
0.0424	-0.001134381
0.0426	-0.001923991
0.0428	-0.004848418
0.043	-0.005999252
0.0432	-0.008675282
0.0434	-0.01058368
0.0436	-0.008715387
0.0438	-0.005821541
0.044	-0.002152563
0.0442	0.002237658
0.0444	0.002144335
0.0446	0.00152038
0.0448	0.001589018
0.045	-6.040902e-5
0.0452	-0.002234687
0.0454	-0.005318092
0.0456	-0.009005827
0.0458	-0.01326066
0.046	-0.01681888
0.0462	-0.0183077
0.0464	-0.0201822
0.0466	-0.02211911
0.0468	-0.02436922
0.047	-0.02525914
0.0472	-0.02572298
0.0474	-0.02576622
0.0476	-0.0251695
0.0478	-0.02603591
0.048	-0.026648
0.0482	-0.02577363
0.0484	-0.02629298
0.0486	-0.02328473
0.0488	-0.0223112
0.049	-0.02158729
0.0492	-0.02103772
0.0494	-0.02008303
0.0496	-0.01701242
0.0498	-0.01333526
0.05	-0.01030605
0.0502	-0.007281701
0.0504	-0.005307761
0.0506	-0.003782187
0.0508	-0.00307521
0.051	-0.003340306
0.0512	-0.00316288
0.0514	-0.001780511
0.0516	0.0003740388
0.0518	0.00209256
0.052	0.003081975
0.0522	0.002443929
0.0524	0.003609241
0.0526	0.005619771
0.0528	0.006699743
0.053	0.008207968
0.0532	0.01082711
0.0534	0.01207442
0.0536	0.01249219
0.0538	0.01414717
0.054	0.01447322
0.0542	0.01518595
0.0544	0.0166568
0.0546	0.01790816
0.0548	0.0183419
0.055	0.01816637
0.0552	0.02008432
0.0554	0.02129762
0.0556	0.02252095
0.0558	0.02247538
0.056	0.0223765
0.0562	0.0238361
0.0564	0.02474548
0.0566	0.02560222
0.0568	0.02535991
0.057	0.025483
0.0572	0.02485231
0.0574	0.02408962
0.0576	0.02470329
0.0578	0.02348655
0.058	0.02060191
0.0582	0.01923679
0.0584	0.01935717
0.0586	0.01891897
0.0588	0.01856089
0.059	0.01774895
0.0592	0.01651287
0.0594	0.01434159
0.0596	0.01323456
0.0598	0.01129532
0.06	0.01002643
0.0602	0.008910608
0.0604	0.007968058
0.0606	0.006872377
0.0608	0.006654959
0.061	0.004714656
0.0612	0.001818494
0.0614	-0.0007172981
0.0616	-0.002942145
0.0618	-0.005652574
0.062	-0.006828415
0.0622	-0.007147754
0.0624	-0.00784435
0.0626	-0.009022271
0.0628	-0.009857507
0.063	-0.0112121
0.0632	-0.01353375
0.0634	-0.01517778
0.0636	-0.01757333
0.0638	-0.01870989
0.064	-0.01988446
0.0642	-0.02042711
0.0644	-0.02072681
0.0646	-0.02304432
0.0648	-0.0235072
0.065	-0.02294734
0.0652	-0.02458339
0.0654	-0.02595282
0.0656	-0.02555968
0.0658	-0.02638083
0.066	-0.028075
0.0662	-0.02681494
0.0664	-0.02700103
0.0666	-0.02743394
0.0668	-0.02779132
0.067	-0.02710106
0.0672	-0.02708118
0.0674	-0.02705167
0.0676	-0.0260859
0.0678	-0.02606628
0.068	-0.02537148
0.0682	-0.02398592
0.0684	-0.02264199
0.0686	-0.02066976
0.0688	-0.0196925
0.069	-0.01998343
0.0692	-0.01983498
0.0694	-0.01781728
0.0696	-0.01560671
0.0698	-0.0161149
0.07	-0.01662295
0.0702	-0.0138349
0.0704	-0.01153278
0.0706	-0.009937947
0.0708	-0.007237648
0.071	-0.005258024
0.0712	-0.003850761
0.0714	-0.002536222
0.0716	-0.001242037
0.0718	0.00101138
0.072	0.002558965
0.0722	0.003274402
0.0724	0.006775313
0.0726	0.008252553
0.0728	0.008991083
0.073	0.009727662
0.0732	0.01128712
0.0734	0.01320073
0.0736	0.01562815
0.0738	0.01705092
0.074	0.01859088
0.0742	0.01917157
0.0744	0.02053229
0.0746	0.02095841
0.0748	0.02117405
0.075	0.02367046
0.0752	0.02512354
0.0754	0.02598623
0.0756	0.02646775
0.0758	0.02827331
0.076	0.02799568
0.0762	0.02699898
0.0764	0.0283804
0.0766	0.02873238
0.0768	0.02835289
0.077	0.02792447
0.0772	0.02616996
0.0774	0.02535249
0.0776	0.02424355
0.0778	0.02307176
0.078	0.02163564
0.0782	0.02217383
0.0784	0.02233086
0.0786	0.02260265
0.0788	0.02217341
0.079	0.01966883
0.0792	0.0180691
0.0794	0.01474042
0.0796	0.01297849
0.0798	0.01289233
0.08	0.01129857
0.0802	0.009403156
0.0804	0.007308365
0.0806	0.005455867
0.0808	0.003761141
0.081	0.003433781
0.0812	0.003679572
0.0814	0.001556976
0.0816	-0.0001131983
0.0818	-0.0009769155
0.082	-0.003503364
0.0822	-0.006119602
0.0824	-0.008813381
0.0826	-0.009579408
0.0828	-0.009840135
0.083	-0.01189371
0.0832	-0.01425983
0.0834	-0.01440691
0.0836	-0.01493305
0.0838	-0.01665378
0.084	-0.01815772
0.0842	-0.01835273
0.0844	-0.01924887
0.0846	-0.02131382
0.0848	-0.02098346
0.085	-0.02081868
0.0852	-0.02072996
0.0854	-0.02233903
0.0856	-0.0227675
0.0858	-0.02341782
0.086	-0.02399198
0.0862	-0.02462184
0.0864	-0.02612066
0.0866	-0.02747451
0.0868	-0.02717002
0.087	-0.02647469
0.0872	-0.02555997
0.0874	-0.02629155
0.0876	-0.026691
0.0878	-0.0246613
0.088	-0.02275846
0.0882	-0.0208357
0.0884	-0.01937203
0.0886	-0.01740327
0.0888	-0.01567234
0.089	-0.01489787
0.0892	-0.01437775
0.0894	-0.01251704
0.0896	-0.01051396
0.0898	-0.009195116
0.09	-0.008776678
0.0902	-0.0069987
0.0904	-0.006031132
0.0906	-0.00353028
0.0908	-0.001057205
0.091	0.001156896
0.0912	0.002605367
0.0914	0.002321999
0.0916	0.003103066
0.0918	0.00643804
0.092	0.006869541
0.0922	0.009087924
0.0924	0.01173047
0.0926	0.01256198
0.0928	0.01330066
0.093	0.01389686
0.0932	0.01481592
0.0934	0.01709658
0.0936	0.01764951
0.0938	0.01609682
0.094	0.01548436
0.0942	0.01625632
0.0944	0.017929
0.0946	0.01854277
0.0948	0.0180935
0.095	0.01801173
0.0952	0.01806065
0.0954	0.01872662
0.0956	0.01704011
0.0958	0.01639802
0.096	0.01750599
0.0962	0.01835217
0.0964	0.02296947
0.0966	0.02424575
0.0968	0.02368681
0.097	0.02236985
0.0972	0.02142121
0.0974	0.02128789
0.0976	0.01919998
0.0978	0.01839139
0.098	0.01591885
0.0982	0.01607168
0.0984	0.01553068
0.0986	0.01337023
0.0988	0.01440531
0.099	0.01430649
0.0992	0.01455371
0.0994	0.01403847
0.0996	0.0143097
0.0998	0.01183392
0.1	0.009553405
0.1002	0.008732968
0.1004	0.008193402
0.1006	0.00728616
0.1008	0.005106247
0.101	0.00401888
0.1012	0.00234627
0.1014	-5.338803e-6
0.1016	-0.001624455
0.1018	-0.003807144
0.102	-0.00415046
0.1022	-0.005436132
0.1024	-0.008071583
0.1026	-0.01105788
0.1028	-0.01244527
0.103	-0.01341593
0.1032	-0.01511801
0.1034	-0.01672825
0.1036	-0.01748015
0.1038	-0.01772141
0.104	-0.01704042
0.1042	-0.01896853
0.1044	-0.02095935
0.1046	-0.02262174
0.1048	-0.02456114
0.105	-0.02470164
0.1052	-0.0256578
0.1054	-0.02485226
0.1056	-0.02411599
0.1058	-0.02458934
0.106	-0.02362599
0.1062	-0.02247593
0.1064	-0.02358576
0.1066	-0.02354832
0.1068	-0.02357628
0.107	-0.02181283
0.1072	-0.02190591
0.1074	-0.02191937
0.1076	-0.02039482
0.1078	-0.01961272
0.108	-0.01900765
0.1082	-0.01905211
0.1084	-0.01884868
0.1086	-0.01601826
0.1088	-0.01458116
0.109	-0.01341644
0.1092	-0.01189634
0.1094	-0.01019038
0.1096	-0.008068329
0.1098	-0.006680969
0.11	-0.006348632
0.1102	-0.005085777
0.1104	-0.004131082
0.1106	-0.003466478
0.1108	-0.001465515
0.111	-0.0002470237
0.1112	0.002168678
0.1114	0.002915904
0.1116	0.004030596
0.1118	0.005835385
0.112	0.00603965
0.1122	0.007942701
0.1124	0.009188402
0.1126	0.008946557
0.1128	0.009734276
0.113	0.011261
0.1132	0.01333299
0.1134	0.01674601
0.1136	0.0172968
0.1138	0.01787803
0.114	0.01891485
0.1142	0.01911921
0.1144	0.02048606
0.1146	0.02110709
0.1148	0.02359311
0.115	0.02449447
0.1152	0.02524042
0.1154	0.02699726
0.1156	0.02830184
0.1158	0.02826813
0.116	0.02745961
0.1162	0.02609151
0.1164	0.02531416
0.1166	0.02622574
0.1168	0.02762187
0.117	0.02839533
0.1172	0.02820794
0.1174	0.02762482
0.1176	0.02868833
0.1178	0.02760862
0.118	0.02463914
0.1182	0.02343964
0.1184	0.02169012
0.1186	0.02182618
0.1188	0.01969138
0.119	0.0187112
0.1192	0.01617573
0.1194	0.01361682
0.1196	0.01296841
0.1198	0.01253109
0.12	0.009854511
0.1202	0.007244547
0.1204	0.005491557
0.1206	0.004533296
0.1208	0.003263827
0.121	0.001059438
0.1212	0.0003043977
0.1214	-0.0009172992
0.1216	-0.003970059
0.1218	-0.005359526
0.122	-0.007862012
0.1222	-0.009417901
0.1224	-0.01094855
0.1226	-0.01341751
0.1228	-0.01549271
0.123	-0.01684094
0.1232	-0.01489399
0.1234	-0.01655146
0.1236	-0.01788977
0.1238	-0.01862274
0.124	-0.01938833
0.1242	-0.0197797
0.1244	-0.02035032
0.1246	-0.02284404
0.1248	-0.02502094
0.125	-0.0239679
0.1252	-0.02350251
0.1254	-0.02441094
0.1256	-0.02580073
0.1258	-0.02670162
0.126	-0.02560579
0.1262	-0.02583947
0.1264	-0.02554127
0.1266	-0.02666675
0.1268	-0.02760185
0.127	-0.02848496
0.1272	-0.02854402
0.1274	-0.02651478
0.1276	-0.02335052
0.1278	-0.02164608
0.128	-0.02079202
0.1282	-0.01917396
0.1284	-0.01684028
0.1286	-0.01498786
0.1288	-0.01431391
0.129	-0.01458238
0.1292	-0.01418711
0.1294	-0.01460031
0.1296	-0.01252205
0.1298	-0.0104482
0.13	-0.008726663
0.1302	-0.006641765
0.1304	-0.004070103
0.1306	-0.002831968
0.1308	-0.004177088
0.131	-0.00460368
0.1312	-0.002879151
0.1314	-0.001476564
0.1316	0.0003025292
0.1318	0.002803377
0.132	0.0053027
0.1322	0.006648774
0.1324	0.007639799
0.1326	0.009259816
0.1328	0.008881862
0.133	0.01026906
0.1332	0.01159993
0.1334	0.01125789
0.1336	0.01369959
0.1338	0.01513688
0.134	0.01783082
0.1342	0.02113689
0.1344	0.02202007
0.1346	0.02231841
0.1348	0.01969614
0.135	0.02026313
0.1352	0.02204021
0.1354	0.02333735
0.1356	0.02421327
0.1358	0.02367545
0.136	0.02417558
0.1362	0.02484516
0.1364	0.02586282
0.1366	0.02672815
0.1368	0.02509278
0.137	0.02460355
0.1372	0.02475398
0.1374	0.02552804
0.1376	0.02487803
0.1378	0.02385384
0.138	0.02298973
0.1382	0.0219388
0.1384	0.02050204
0.1386	0.01946915
0.1388	0.01849108
0.139	0.01562775
0.1392	0.01548265
0.1394	0.01358895
0.1396	0.01195786
0.1398	0.01054437
0.14	0.009101458
0.1402	0.008358268
0.1404	0.005672851
0.1406	0.003110931
0.1408	0.001043616
0.141	0.001410319
0.1412	0.0002283228
0.1414	-0.001168983
0.1416	-0.0009673966
0.1418	-0.002575263
0.142	-0.005029945
0.1422	-0.007430172
0.1424	-0.009483723
0.1426	-0.009827783
0.1428	-0.01114602
0.143	-0.01321877
0.1432	-0.01636682
0.1434	-0.02061525
0.1436	-0.02539199
0.1438	-0.03014004
0.144	-0.03734726
0.1442	-0.04396109
0.1444	-0.04711622
0.1446	-0.05007209
0.1448	-0.05202022
0.145	-0.05147231
0.1452	-0.05217025
0.1454	-0.05339671
0.1456	-0.05268592
0.1458	-0.05042237
0.146	-0.04793881
0.1462	-0.04703592
0.1464	-0.04608091
0.1466	-0.04398125
0.1468	-0.04059963
0.147	-0.038537
0.1472	-0.0350496
0.1474	-0.02985809
0.1476	-0.02677154
0.1478	-0.02616978
0.148	-0.02370132
0.1482	-0.02053281
0.1484	-0.01514759
0.1486	-0.01089276
0.1488	-0.009561482
0.149	-0.004480477
0.1492	-0.001328166
0.1494	-6.555885e-5
0.1496	0.004066199
0.1498	0.007945125
0.15	0.01122908
0.1502	0.01491434
0.1504	0.01946126
0.1506	0.02366686
0.1508	0.02891591
0.151	0.03314006
0.1512	0.03855668
0.1514	0.04178934
0.1516	0.0426944
0.1518	0.04299145
0.152	0.04144702
0.1522	0.03953502
0.1524	0.03562645
0.1526	0.03171973
0.1528	0.02768747
0.153	0.02452044
0.1532	0.02204328
0.1534	0.02011324
0.1536	0.01942943
0.1538	0.02002278
0.154	0.01938183
0.1542	0.01891847
0.1544	0.02211685
0.1546	0.02139398
0.1548	0.02108364
0.155	0.02247204
0.1552	0.02229371
0.1554	0.02075805
0.1556	0.02055382
0.1558	0.02012691
0.156	0.02050494
0.1562	0.02148636
0.1564	0.02224842
0.1566	0.02500653
0.1568	0.02622635
0.157	0.02506683
0.1572	0.02424001
0.1574	0.02257624
0.1576	0.02116956
0.1578	0.02042123
0.158	0.02079208
0.1582	0.02260331
0.1584	0.02373266
0.1586	0.02453713
0.1588	0.02499621
0.159	0.0250693
0.1592	0.02433413
0.1594	0.02351604
0.1596	0.02078717
0.1598	0.01873893
0.16	0.01917355
0.1602	0.01792261
0.1604	0.01568851
0.1606	0.01138108
0.1608	0.008133478
0.161	0.003927476
0.1612	-0.0009575927
0.1614	-0.004204279
0.1616	-0.006471562
0.1618	-0.008447039
0.162	-0.009824947
0.1622	-0.01246602
0.1624	-0.01537356
0.1626	-0.017477
0.1628	-0.01909236
0.163	-0.01969475
0.1632	-0.02087557
0.1634	-0.02234544
0.1636	-0.02233626
0.1638	-0.02388616
0.164	-0.0256182
0.1642	-0.02599048
0.1644	-0.02604294
0.1646	-0.02558245
0.1648	-0.02672979
0.165	-0.02825456
0.1652	-0.02933095
0.1654	-0.02889256
0.1656	-0.02810403
0.1658	-0.02762954
0.166	-0.0276547
0.1662	-0.0285072
0.1664	-0.02876986
0.1666	-0.03025911
0.1668	-0.03079609
0.167	-0.02979942
0.1672	-0.02734011
0.1674	-0.02687452
0.1676	-0.02662106
0.1678	-0.02638051
0.168	-0.02652768
0.1682	-0.02510257
0.1684	-0.02396473
0.1686	-0.02263716
0.1688	-0.02083566
0.169	-0.01977949
0.1692	-0.01702326
0.1694	-0.01468289
0.1696	-0.01400575
0.1698	-0.01228866
0.17	-0.01081543
0.1702	-0.01029534
0.1704	-0.008681565
0.1706	-0.006770156
0.1708	-0.005592552
0.171	-0.003564735
0.1712	-0.0007122834
0.1714	0.0005965814
0.1716	0.002076219
0.1718	0.003464671
0.172	0.005158642
0.1722	0.007463719
0.1724	0.01136144
0.1726	0.01232881
0.1728	0.01119949
0.173	0.0119896
0.1732	0.01269282
0.1734	0.01391748
0.1736	0.0151094
0.1738	0.01527453
0.174	0.0150609
0.1742	0.01632659
0.1744	0.01784457
0.1746	0.01849866
0.1748	0.01771226
0.175	0.01837964
0.1752	0.01894258
0.1754	0.01871647
0.1756	0.01927536
0.1758	0.01925037
0.176	0.01948346
0.1762	0.0211527
0.1764	0.0212829
0.1766	0.02020548
0.1768	0.01955479
0.177	0.01952298
0.1772	0.01919496
0.1774	0.01888676
0.1776	0.01791841
0.1778	0.01780627
0.178	0.01901897
0.1782	0.0184794
0.1784	0.01812545
0.1786	0.01659436
0.1788	0.01471979
0.179	0.01387615
0.1792	0.01309312
0.1794	0.01467079
0.1796	0.01370978
0.1798	0.01080936
0.18	0.007786763
0.1802	0.004494956
0.1804	0.003476269
0.1806	0.003150066
0.1808	0.0004270287
0.181	-0.001232726
0.1812	-0.003563079
0.1814	-0.005773348
0.1816	-0.006991778
0.1818	-0.007956426
0.182	-0.008470695
0.1822	-0.009010069
0.1824	-0.009318165
0.1826	-0.009207958
0.1828	-0.009784421
0.183	-0.01131525
0.1832	-0.01349629
0.1834	-0.01563123
0.1836	-0.018074
0.1838	-0.01920069
0.184	-0.02031354
0.1842	-0.02028564
0.1844	-0.02066865
0.1846	-0.02199068
0.1848	-0.02207289
0.185	-0.02280363
0.1852	-0.02375816
0.1854	-0.02384175
0.1856	-0.02307522
0.1858	-0.02376607
0.186	-0.02564976
0.1862	-0.02570739
0.1864	-0.023841
0.1866	-0.0241892
0.1868	-0.02417134
0.187	-0.02409292
0.1872	-0.02433779
0.1874	-0.02256674
0.1876	-0.02150732
0.1878	-0.02064775
0.188	-0.02029844
0.1882	-0.02010529
0.1884	-0.01865493
0.1886	-0.0172701
0.1888	-0.01486482
0.189	-0.01140788
0.1892	-0.01132493
0.1894	-0.00955337
0.1896	-0.008151585
0.1898	-0.007666126
0.19	-0.005869668
0.1902	-0.004562753
0.1904	-0.0008686064
0.1906	-0.0004398655
0.1908	0.002113603
0.191	0.003467384
0.1912	0.004213896
0.1914	0.005241738
0.1916	0.005946581
0.1918	0.008371816
0.192	0.008825883
0.1922	0.01128343
0.1924	0.01160637
0.1926	0.01150312
0.1928	0.01319818
0.193	0.01377782
0.1932	0.01470702
0.1934	0.01578501
0.1936	0.01763126
0.1938	0.01765766
0.194	0.01903552
0.1942	0.02009866
0.1944	0.01860152
0.1946	0.01883695
0.1948	0.01798695
0.195	0.01834287
0.1952	0.02065999
0.1954	0.02247628
0.1956	0.0226208
0.1958	0.02358841
0.196	0.02361229
0.1962	0.02424888
0.1964	0.02521487
0.1966	0.02597005
0.1968	0.02625275
0.197	0.02534276
0.1972	0.02449485
0.1974	0.02324889
0.1976	0.02300171
0.1978	0.02312132
0.198	0.02273273
0.1982	0.02137698
0.1984	0.01893501
0.1986	0.01752174
0.1988	0.01532701
0.199	0.01316082
0.1992	0.01203373
0.1994	0.009291934
0.1996	0.007212579
0.1998	0.007580443
0.2	0.007463167
0.2002	0.005939115
0.2004	0.006612355
0.2006	0.006446899
0.2008	0.005660241
0.201	0.004336754
0.2012	0.002427527
0.2014	0.001850142
0.2016	-7.459018e-5
0.2018	-0.002506972
0.202	-0.004603125
0.2022	-0.006520083
0.2024	-0.008338976
0.2026	-0.01034031
0.2028	-0.01121275
0.203	-0.01333589
0.2032	-0.01505783
0.2034	-0.01818975
0.2036	-0.01927154
0.2038	-0.02019051
0.204	-0.02173054
0.2042	-0.02305387
0.2044	-0.02301861
0.2046	-0.02324322
0.2048	-0.02454012
0.205	-0.02432715
0.2052	-0.02421773
0.2054	-0.02410323
0.2056	-0.02325815
0.2058	-0.02304097
0.206	-0.02204799
0.2062	-0.02064318
0.2064	-0.02118306
0.2066	-0.0216994
0.2068	-0.02186389
0.207	-0.0216177
0.2072	-0.02148575
0.2074	-0.02184128
0.2076	-0.0209189
0.2078	-0.01919728
0.208	-0.01789385
0.2082	-0.0182399
0.2084	-0.01885618
0.2086	-0.01896381
0.2088	-0.01910026
0.209	-0.01685239
0.2092	-0.01664544
0.2094	-0.01547937
0.2096	-0.0132504
0.2098	-0.01230648
0.21	-0.01102268
0.2102	-0.01031336
0.2104	-0.009298662
0.2106	-0.008749275
0.2108	-0.005606445
0.211	-0.003782674
0.2112	-0.002095561
0.2114	-0.0009220514
0.2116	0.001022112
0.2118	0.002630698
0.212	0.004513512
0.2122	0.005638984
0.2124	0.006753462
0.2126	0.007402816
0.2128	0.008614248
0.213	0.01083034
0.2132	0.01308365
0.2134	0.01447593
0.2136	0.01510197
0.2138	0.01636576
0.214	0.01761766
0.2142	0.01852236
0.2144	0.02006874
0.2146	0.01946923
0.2148	0.01951542
0.215	0.02128641
0.2152	0.02209453
0.2154	0.02167543
0.2156	0.02133191
0.2158	0.02287511
0.216	0.02442863
0.2162	0.02367649
0.2164	0.02411919
0.2166	0.02435004
0.2168	0.02536834
0.217	0.02510689
0.2172	0.02410956
0.2174	0.02176531
0.2176	0.01963648
0.2178	0.02059355
0.218	0.0197818
0.2182	0.01859657
0.2184	0.01818907
0.2186	0.01770542
0.2188	0.01772652
0.219	0.01737028
0.2192	0.0152313
0.2194	0.01399659
0.2196	0.01338867
0.2198	0.01174899
0.22	0.01023355
0.2202	0.008899905
0.2204	0.006153061
0.2206	0.005571326
0.2208	0.004398912
0.221	0.00225248
0.2212	0.002543624
0.2214	0.0006789099
0.2216	-0.0008258614
0.2218	-0.003021188
0.222	-0.004496909
0.2222	-0.00692886
0.2224	-0.01039297
0.2226	-0.0114909
0.2228	-0.01141403
0.223	-0.01071364
0.2232	-0.01252039
0.2234	-0.01416722
0.2236	-0.01353045
0.2238	-0.0137145
0.224	-0.01431458
0.2242	-0.01562454
0.2244	-0.01724894
0.2246	-0.01840393
0.2248	-0.02016089
0.225	-0.02077129
0.2252	-0.02067353
0.2254	-0.02029377
0.2256	-0.02155525
0.2258	-0.02168199
0.226	-0.02277948
0.2262	-0.02340578
0.2264	-0.02525621
0.2266	-0.0252951
0.2268	-0.02439969
0.227	-0.02381839
0.2272	-0.02356411
0.2274	-0.02324311
0.2276	-0.0219274
0.2278	-0.02005893
0.228	-0.01995045
0.2282	-0.02114867
0.2284	-0.02065832
0.2286	-0.01947854
0.2288	-0.018072
0.229	-0.01746137
0.2292	-0.01662268
0.2294	-0.01424609
0.2296	-0.0114313
0.2298	-0.01122083
0.23	-0.01106101
0.2302	-0.01108949
0.2304	-0.01061307
0.2306	-0.01018349
0.2308	-0.009130767
0.231	-0.006859871
0.2312	-0.005827663
0.2314	-0.004194588
0.2316	-0.001075897
0.2318	0.002194051
0.232	0.006223367
0.2322	0.007907666
0.2324	0.008439727
0.2326	0.01135076
0.2328	0.01195921
0.233	0.01390301
0.2332	0.01642289
0.2334	0.01935472
0.2336	0.0216119
0.2338	0.02300839
0.234	0.02223751
0.2342	0.02418582
0.2344	0.02420121
0.2346	0.02476295
0.2348	0.02435103
0.235	0.02363495
0.2352	0.02353256
0.2354	0.02500443
0.2356	0.02615439
0.2358	0.0264466
0.236	0.02527079
0.2362	0.02418078
0.2364	0.02470901
0.2366	0.02438342
0.2368	0.02373523
0.237	0.0238675
0.2372	0.02213692
0.2374	0.02137524
0.2376	0.02148208
0.2378	0.01914459
0.238	0.01888187
0.2382	0.01838399
0.2384	0.01747084
0.2386	0.01614123
0.2388	0.0149394
0.239	0.01446574
0.2392	0.01171566
0.2394	0.01020465
0.2396	0.008356232
0.2398	0.00659821
0.24	0.004920667
0.2402	0.002432536
0.2404	0.0004442409
0.2406	-0.001914388
0.2408	-0.005190654
0.241	-0.006265917
0.2412	-0.005562806
0.2414	-0.007246279
0.2416	-0.00836178
0.2418	-0.008118126
0.242	-0.007878345
0.2422	-0.008046458
0.2424	-0.009997492
0.2426	-0.01244385
0.2428	-0.01282845
0.243	-0.01272305
0.2432	-0.01279932
0.2434	-0.01410876
0.2436	-0.01337613
0.2438	-0.01307926
0.244	-0.01340491
0.2442	-0.01321914
0.2444	-0.01372697
0.2446	-0.01434835
0.2448	-0.01461958
0.245	-0.01533846
0.2452	-0.01724542
0.2454	-0.0181312
0.2456	-0.01782616
0.2458	-0.01931313
0.246	-0.02024116
0.2462	-0.01971421
0.2464	-0.02044982
0.2466	-0.0230414
0.2468	-0.02324222
0.247	-0.02342605
0.2472	-0.02359508
0.2474	-0.02362351
0.2476	-0.02218306
0.2478	-0.01932583
0.248	-0.01808304
0.2482	-0.01654274
0.2484	-0.01607742
0.2486	-0.01584121
0.2488	-0.01682877
0.249	-0.01968497
0.2492	-0.02264936
0.2494	-0.02564857
0.2496	-0.02549621
0.2498	-0.02668239
0.25	-0.02800602
0.2502	-0.02707261
0.2504	-0.02419271
0.2506	-0.02116128
0.2508	-0.0181471
0.251	-0.01505323
0.2512	-0.01215515
0.2514	-0.008312513
0.2516	-0.004250925
0.2518	0.0005997205
0.252	0.007000163
0.2522	0.01114416
0.2524	0.01351897
0.2526	0.015816
0.2528	0.01965463
0.253	0.02399937
0.2532	0.02697931
0.2534	0.02936974
0.2536	0.03019142
0.2538	0.03036644
0.254	0.03228578
0.2542	0.03514494
0.2544	0.03664716
0.2546	0.03690069
0.2548	0.03633635
0.255	0.03732703
0.2552	0.03898505
0.2554	0.04005118
0.2556	0.04044858
0.2558	0.04141401
0.256	0.04221102
0.2562	0.04318013
0.2564	0.04107185
0.2566	0.03971458
0.2568	0.0394356
0.257	0.03779265
0.2572	0.03543645
0.2574	0.03076977
0.2576	0.02799763
0.2578	0.02532496
0.258	0.0210891
0.2582	0.0189308
0.2584	0.01634871
0.2586	0.01456152
0.2588	0.01281498
0.259	0.01100347
0.2592	0.009450436
0.2594	0.006622149
0.2596	0.005418951
0.2598	0.004497955
0.26	0.002669834
0.2602	0.001400369
0.2604	0.0003018046
0.2606	-0.001997394
0.2608	-0.002667863
0.261	-0.004116322
0.2612	-0.00497345
0.2614	-0.006016961
0.2616	-0.008120133
0.2618	-0.009522593
0.262	-0.01008699
0.2622	-0.01103314
0.2624	-0.01290099
0.2626	-0.01429163
0.2628	-0.01607076
0.263	-0.01780006
0.2632	-0.01904392
0.2634	-0.02107021
0.2636	-0.02188504
0.2638	-0.02370855
0.264	-0.0247501
0.2642	-0.02581714
0.2644	-0.02712816
0.2646	-0.0264594
0.2648	-0.02654191
0.265	-0.02550759
0.2652	-0.02399072
0.2654	-0.02378437
0.2656	-0.02432975
0.2658	-0.02447704
0.266	-0.02410736
0.2662	-0.02291596
0.2664	-0.02339015
0.2666	-0.02564825
0.2668	-0.02468394
0.267	-0.02318573
0.2672	-0.02103757
0.2674	-0.01947036
0.2676	-0.01973693
0.2678	-0.01982909
0.268	-0.01907781
0.2682	-0.0199866
0.2684	-0.01819911
0.2686	-0.0148583
0.2688	-0.01313148
0.269	-0.01399265
0.2692	-0.01394388
0.2694	-0.01321829
0.2696	-0.01186944
0.2698	-0.01085669
0.27	-0.01028559
0.2702	-0.00907054
0.2704	-0.007589553
0.2706	-0.00485605
0.2708	-0.003287127
0.271	-0.0006685323
0.2712	0.001328721
0.2714	0.001631412
0.2716	0.002056614
0.2718	0.002293657
0.272	0.003937242
0.2722	0.005727099
0.2724	0.007866525
0.2726	0.009135427
0.2728	0.00887792
0.273	0.01005155
0.2732	0.01067439
0.2734	0.0112437
0.2736	0.01209481
0.2738	0.01372644
0.274	0.01705227
0.2742	0.01916577
0.2744	0.02023184
0.2746	0.01938505
0.2748	0.01917109
0.275	0.01987853
0.2752	0.02048104
0.2754	0.02179612
0.2756	0.02024991
0.2758	0.01979361
0.276	0.02070199
0.2762	0.02027155
0.2764	0.01995868
0.2766	0.0189143
0.2768	0.01777955
0.277	0.01809794
0.2772	0.01747467
0.2774	0.018427
0.2776	0.01771037
0.2778	0.01568861
0.278	0.01594648
0.2782	0.01512179
0.2784	0.01502328
0.2786	0.01487534
0.2788	0.01374388
0.279	0.01280093
0.2792	0.01201853
0.2794	0.01019315
0.2796	0.006851293
0.2798	0.005781976
0.28	0.005646367
0.2802	0.004012637
0.2804	0.001710381
0.2806	-0.001653593
0.2808	-0.003238461
0.281	-0.004229204
0.2812	-0.005643839
0.2814	-0.005369056
0.2816	-0.005867853
0.2818	-0.006915024
0.282	-0.007451979
0.2822	-0.008179725
0.2824	-0.008303955
0.2826	-0.009944762
0.2828	-0.01144871
0.283	-0.01356342
0.2832	-0.01494888
0.2834	-0.01493783
0.2836	-0.0160936
0.2838	-0.01808578
0.284	-0.0187488
0.2842	-0.01878476
0.2844	-0.01944774
0.2846	-0.01894336
0.2848	-0.02061998
0.285	-0.0219349
0.2852	-0.02189937
0.2854	-0.02252204
0.2856	-0.02380493
0.2858	-0.02216595
0.286	-0.02046843
0.2862	-0.01961319
0.2864	-0.01961353
0.2866	-0.02091807
0.2868	-0.02145108
0.287	-0.02032908
0.2872	-0.01873302
0.2874	-0.0174784
0.2876	-0.0165873
0.2878	-0.01593081
0.288	-0.0150901
0.2882	-0.01454909
0.2884	-0.01486424
0.2886	-0.01441002
0.2888	-0.01252929
0.289	-0.01106515
0.2892	-0.009723078
0.2894	-0.01011153
0.2896	-0.008930995
0.2898	-0.006826457
0.29	-0.005926455
0.2902	-0.004422155
0.2904	-0.003083673
0.2906	-0.002992708
0.2908	-0.0001645873
0.291	0.001251752
0.2912	0.002004127
0.2914	0.003311701
0.2916	0.005635469
0.2918	0.007011044
0.292	0.008487308
0.2922	0.009872807
0.2924	0.01052598
0.2926	0.01266304
0.2928	0.01542
0.293	0.0165454
0.2932	0.01653466
0.2934	0.01707483
0.2936	0.01795853
0.2938	0.01896564
0.294	0.01726594
0.2942	0.01685947
0.2944	0.01827632
0.2946	0.01815186
0.2948	0.01841736
0.295	0.01862134
0.2952	0.01960458
0.2954	0.02024309
0.2956	0.02058703
0.2958	0.01962118
0.296	0.0196871
0.2962	0.0213874
0.2964	0.02327678
0.2966	0.02200691
0.2968	0.02131825
0.297	0.0219596
0.2972	0.02236633
0.2974	0.02048077
0.2976	0.01917978
0.2978	0.01922043
0.298	0.01832861
0.2982	0.01901762
0.2984	0.01808897
0.2986	0.01713366
0.2988	0.01577269
0.299	0.01414803
0.2992	0.0124479
0.2994	0.01072784
0.2996	0.01128928
0.2998	0.01140588
0.3	0.009530695
0.3002	0.00933343
0.3004	0.009186745
0.3006	0.008742066
0.3008	0.007582598
0.301	0.006314315
0.3012	0.003156026
0.3014	-0.0007472301
0.3016	-0.002823367
0.3018	-0.004747006
0.302	-0.006589128
0.3022	-0.009876541
0.3024	-0.009707194
0.3026	-0.009497517
0.3028	-0.01002441
0.303	-0.0120356
0.3032	-0.01375561
0.3034	-0.01565507
0.3036	-0.01740883
0.3038	-0.01759789
0.304	-0.01864644
0.3042	-0.01961436
0.3044	-0.02011753
0.3046	-0.02110165
0.3048	-0.02047183
0.305	-0.02029816
0.3052	-0.02064542
0.3054	-0.02303327
0.3056	-0.0238618
0.3058	-0.02249345
0.306	-0.02188289
0.3062	-0.02194949
0.3064	-0.02209498
0.3066	-0.02314005
0.3068	-0.02371169
0.307	-0.02455611
0.3072	-0.02493317
0.3074	-0.0243864
0.3076	-0.02231725
0.3078	-0.02233196
0.308	-0.02123332
0.3082	-0.02011236
0.3084	-0.01989885
0.3086	-0.01830737
0.3088	-0.01578557
0.309	-0.01508296
0.3092	-0.0134597
0.3094	-0.01129066
0.3096	-0.009568726
0.3098	-0.008602508
0.31	-0.007072326
0.3102	-0.006479122
0.3104	-0.003418705
0.3106	-0.0009305989
0.3108	0.0008541008
0.311	0.001964872
0.3112	0.003394992
0.3114	0.005436262
0.3116	0.006879255
0.3118	0.008136852
0.312	0.008264195
0.3122	0.01103282
0.3124	0.01263455
0.3126	0.0128296
0.3128	0.01345961
0.313	0.01543164
0.3132	0.01584571
0.3134	0.01587035
0.3136	0.01593991
0.3138	0.01540694
0.314	0.01633306
0.3142	0.01904402
0.3144	0.01999752
0.3146	0.0200149
0.3148	0.01892813
0.315	0.0183165
0.3152	0.01713097
0.3154	0.0174027
0.3156	0.01889664
0.3158	0.01904931
0.316	0.01895715
0.3162	0.01904378
0.3164	0.01950964
0.3166	0.01926352
0.3168	0.01844384
0.317	0.01780541
0.3172	0.01708399
0.3174	0.01597536
0.3176	0.01504991
0.3178	0.01398933
0.318	0.01274905
0.3182	0.01247331
0.3184	0.01230171
0.3186	0.01278034
0.3188	0.01027278
0.319	0.009692804
0.3192	0.008876315
0.3194	0.007585233
0.3196	0.006797914
0.3198	0.00563219
0.32	0.006219242
0.3202	0.005518944
0.3204	0.004649111
0.3206	0.00299002
0.3208	0.001751789
0.321	-0.001626126
0.3212	-0.003033251
0.3214	-0.003050726
0.3216	-0.003182424
0.3218	-0.003655553
0.322	-0.006138282
0.3222	-0.007297653
0.3224	-0.008765118
0.3226	-0.00970794
0.3228	-0.01281303
0.323	-0.01341253
0.3232	-0.01505991
0.3234	-0.01499977
0.3236	-0.01514032
0.3238	-0.01571172
0.324	-0.01736066
0.3242	-0.01797673
0.3244	-0.02013055
0.3246	-0.02107117
0.3248	-0.01941163
0.325	-0.01811304
0.3252	-0.01791757
0.3254	-0.02009758
0.3256	-0.0218124
0.3258	-0.02109567
0.326	-0.01974175
0.3262	-0.02065714
0.3264	-0.02181057
0.3266	-0.0222412
0.3268	-0.02305253
0.327	-0.02109923
0.3272	-0.01896448
0.3274	-0.01775677
0.3276	-0.01634749
0.3278	-0.01573643
0.328	-0.01480581
0.3282	-0.01500726
0.3284	-0.01481869
0.3286	-0.01454078
0.3288	-0.01330658
0.329	-0.01108252
0.3292	-0.008747095
0.3294	-0.007202767
0.3296	-0.006127547
0.3298	-0.005037025
0.33	-0.004570738
0.3302	-0.004080733
0.3304	-0.003107954
0.3306	-0.00330992
0.3308	-0.002953939
0.331	-8.768054e-5
0.3312	0.001727544
0.3314	0.002859529
0.3316	0.00500157
0.3318	0.005456379
0.332	0.007187257
0.3322	0.008494966
0.3324	0.01026604
0.3326	0.01141788
0.3328	0.01220723
0.333	0.01207358
0.3332	0.01293697
0.3334	0.01503129
0.3336	0.01519536
0.3338	0.01469354
0.334	0.01490793
0.3342	0.0159706
0.3344	0.01760016
0.3346	0.01963744
0.3348	0.0220133
0.335	0.02364532
0.3352	0.02282195
0.3354	0.02237472
0.3356	0.02255482
0.3358	0.02168475
0.336	0.02120307
0.3362	0.02158328
0.3364	0.02332773
0.3366	0.02416799
0.3368	0.02304677
0.337	0.02141719
0.3372	0.02001356
0.3374	0.01835924
0.3376	0.01763279
0.3378	0.0190896
0.338	0.02034301
0.3382	0.02174023
0.3384	0.02132817
0.3386	0.01973218
0.3388	0.0184191
0.339	0.01795707
0.3392	0.01694312
0.3394	0.01530413
0.3396	0.01457232
0.3398	0.01256253
0.34	0.01080088
0.3402	0.008534924
0.3404	0.007379837
0.3406	0.005547012
0.3408	0.00365527
0.341	0.002894415
0.3412	0.002632686
0.3414	0.0008999301
0.3416	-0.002238727
0.3418	-0.003490494
0.342	-0.00519583
0.3422	-0.006813277
0.3424	-0.00903945
0.3426	-0.01188317
0.3428	-0.01229813
0.343	-0.01292741
0.3432	-0.0147616
0.3434	-0.01588562
0.3436	-0.01648532
0.3438	-0.01694315
0.344	-0.02002233
0.3442	-0.02186854
0.3444	-0.02096159
0.3446	-0.0211955
0.3448	-0.0232635
0.345	-0.02481322
0.3452	-0.02469436
0.3454	-0.0255387
0.3456	-0.0265281
0.3458	-0.0258055
0.346	-0.0260563
0.3462	-0.02674826
0.3464	-0.02756984
0.3466	-0.02735952
0.3468	-0.02567961
0.347	-0.02494227
0.3472	-0.02448044
0.3474	-0.02423013
0.3476	-0.02514955
0.3478	-0.02380557
0.348	-0.02414592
0.3482	-0.02345142
0.3484	-0.02146159
0.3486	-0.02011571
0.3488	-0.01742531
0.349	-0.01655826
0.3492	-0.01450431
0.3494	-0.01327846
0.3496	-0.01182549
0.3498	-0.008913388
0.35	-0.009718919
0.3502	-0.006930349
0.3504	-0.004698593
0.3506	-0.002622928
0.3508	3.564098e-5
0.351	0.00138473
0.3512	0.004034671
0.3514	0.006207453
0.3516	0.008728093
0.3518	0.01054207
0.352	0.0123448
0.3522	0.01260042
0.3524	0.01358001
0.3526	0.01632133
0.3528	0.01960898
0.353	0.01991474
0.3532	0.02081681
0.3534	0.02297509
0.3536	0.02453732
0.3538	0.02474152
0.354	0.02390445
0.3542	0.0222502
0.3544	0.02284692
0.3546	0.02099656
0.3548	0.01972086
0.355	0.02037339
0.3552	0.02134892
0.3554	0.02175694
0.3556	0.02171584
0.3558	0.02292344
0.356	0.02267322
0.3562	0.02325041
0.3564	0.02353077
0.3566	0.02284343
0.3568	0.02193936
0.357	0.0198123
0.3572	0.01963316
0.3574	0.01902009
0.3576	0.01742989
0.3578	0.01647615
0.358	0.01514484
0.3582	0.01322851
0.3584	0.01064258
0.3586	0.008400584
0.3588	0.00868269
0.359	0.007614597
0.3592	0.006420301
0.3594	0.006637362
0.3596	0.007505166
0.3598	0.007204038
0.36	0.007021423
0.3602	0.005451575
0.3604	0.003885363
0.3606	0.0009410323
0.3608	-0.001011501
0.361	-0.001844599
0.3612	-0.00427655
0.3614	-0.005540933
0.3616	-0.007036471
0.3618	-0.008786077
0.362	-0.009970103
0.3622	-0.01237269
0.3624	-0.01335415
0.3626	-0.0143102
0.3628	-0.01414311
0.363	-0.01478962
0.3632	-0.0178236
0.3634	-0.01824598
0.3636	-0.0171041
0.3638	-0.01658652
0.364	-0.01830036
0.3642	-0.01886499
0.3644	-0.01848284
0.3646	-0.01891003
0.3648	-0.01903981
0.365	-0.01938848
0.3652	-0.01950911
0.3654	-0.02017191
0.3656	-0.02017178
0.3658	-0.02055351
0.366	-0.01915213
0.3662	-0.02027431
0.3664	-0.0206433
0.3666	-0.02007447
0.3668	-0.0203405
0.367	-0.02043976
0.3672	-0.02094149
0.3674	-0.02008389
0.3676	-0.02021626
0.3678	-0.01987677
0.368	-0.0195934
0.3682	-0.01776201
0.3684	-0.0158191
0.3686	-0.01534364
0.3688	-0.01449835
0.369	-0.01316166
0.3692	-0.01134336
0.3694	-0.009862736
0.3696	-0.009504149
0.3698	-0.00882344
0.37	-0.008021071
0.3702	-0.007375027
0.3704	-0.005063647
0.3706	-0.002615346
0.3708	-0.002324589
0.371	-0.001408731
0.3712	-2.750357e-5
0.3714	0.0004477244
0.3716	0.002354714
0.3718	0.004287553
0.372	0.0064497
0.3722	0.008718017
0.3724	0.01012328
0.3726	0.01105889
0.3728	0.0109965
0.373	0.01289982
0.3732	0.01447173
0.3734	0.01510462
0.3736	0.01605912
0.3738	0.01674762
0.374	0.01796379
0.3742	0.02023765
0.3744	0.02103125
0.3746	0.02155867
0.3748	0.02184325
0.375	0.02049584
0.3752	0.02103342
0.3754	0.02278435
0.3756	0.0232631
0.3758	0.02343659
0.376	0.02378532
0.3762	0.02494915
0.3764	0.02545533
0.3766	0.02627443
0.3768	0.02479524
0.377	0.0233602
0.3772	0.02302359
0.3774	0.02134184
0.3776	0.02151646
0.3778	0.02138595
0.378	0.02125039
0.3782	0.02121388
0.3784	0.02028217
0.3786	0.01948637
0.3788	0.0170222
0.379	0.01600049
0.3792	0.01512909
0.3794	0.01275149
0.3796	0.01050568
0.3798	0.009618737
0.38	0.007861823
0.3802	0.005432874
0.3804	0.003433041
0.3806	0.002589096
0.3808	0.0023723
0.381	0.001992439
0.3812	-4.709122e-5
0.3814	-0.0005893421
0.3816	-0.00292517
0.3818	-0.004587026
0.382	-0.0060449
0.3822	-0.008204669
0.3824	-0.009079573
0.3826	-0.009095655
0.3828	-0.01065809
0.383	-0.01303044
0.3832	-0.01502335
0.3834	-0.01714814
0.3836	-0.01898747
0.3838	-0.02117736
0.384	-0.02176926
0.3842	-0.02305677
0.3844	-0.02369856
0.3846	-0.0234746
0.3848	-0.02194801
0.385	-0.02024636
0.3852	-0.02209159
0.3854	-0.02384405
0.3856	-0.02502489
0.3858	-0.02494152
0.386	-0.02491046
0.3862	-0.02488947
0.3864	-0.02530783
0.3866	-0.02617198
0.3868	-0.02652924
0.387	-0.02438904
0.3872	-0.02181107
0.3874	-0.02109388
0.3876	-0.02000508
0.3878	-0.02001596
0.388	-0.02021463
0.3882	-0.01925738
0.3884	-0.01596021
0.3886	-0.0151817
0.3888	-0.01461903
0.389	-0.01292298
0.3892	-0.01258573
0.3894	-0.01174102
0.3896	-0.009303793
0.3898	-0.0084342
0.39	-0.007514344
0.3902	-0.005325142
0.3904	-0.005181778
0.3906	-0.004393408
0.3908	-0.004881403
0.391	-0.003667134
0.3912	-0.0009536291
0.3914	0.0007497421
0.3916	0.003040314
0.3918	0.003319614
0.392	0.005094631
0.3922	0.006135067
0.3924	0.007656526
0.3926	0.009298656
0.3928	0.009753227
0.393	0.01030212
0.3932	0.01211477
0.3934	0.01221775
0.3936	0.01240818
0.3938	0.01323872
0.394	0.01455693
0.3942	0.0154526
0.3944	0.01664905
0.3946	0.01926696
0.3948	0.01817054
0.395	0.01882139
0.3952	0.01856895
0.3954	0.01783582
0.3956	0.02028148
0.3958	0.02167193
0.396	0.02052097
0.3962	0.02141463
0.3964	0.02322557
0.3966	0.02278435
0.3968	0.0226192
0.397	0.02138416
0.3972	0.02215009
0.3974	0.02138969
0.3976	0.01996657
0.3978	0.01955858
0.398	0.01941788
0.3982	0.01945874
0.3984	0.01858268
0.3986	0.01496789
0.3988	0.01361905
0.399	0.01369128
0.3992	0.01061562
0.3994	0.01022363
0.3996	0.01127587
0.3998	0.01176599
0.4	0.01073548
0.4002	0.008271618
0.4004	0.007646672
0.4006	0.004818769
0.4008	0.003780837
0.401	0.002206746
0.4012	0.0008109614
0.4014	0.0003809025
0.4016	-0.0007983446
0.4018	-0.0007362026
0.402	-0.002727982
0.4022	-0.006018583
0.4024	-0.008014265
0.4026	-0.01014507
0.4028	-0.01258628
0.403	-0.01484724
0.4032	-0.01582954
0.4034	-0.01537705
0.4036	-0.0146426
0.4038	-0.01585678
0.404	-0.01706297
0.4042	-0.01751318
0.4044	-0.01907878
0.4046	-0.01910725
0.4048	-0.01854813
0.405	-0.01804743
0.4052	-0.01877452
0.4054	-0.01778892
0.4056	-0.01782633
0.4058	-0.01848868
0.406	-0.01853012
0.4062	-0.01991064
0.4064	-0.02030553
0.4066	-0.01987199
0.4068	-0.01975804
0.407	-0.01882507
0.4072	-0.01817335
0.4074	-0.01913502
0.4076	-0.01948541
0.4078	-0.01967626
0.408	-0.01839389
0.4082	-0.01654605
0.4084	-0.01413838
0.4086	-0.01269562
0.4088	-0.01201526
0.409	-0.009640815
0.4092	-0.00849444
0.4094	-0.008083613
0.4096	-0.007588121
0.4098	-0.006977349
0.41	-0.005759123
0.4102	-0.005985384
0.4104	-0.007469208
0.4106	-0.00612999
0.4108	-0.004115039
0.411	-0.00429286
0.4112	-0.004388246
0.4114	-0.00468786
0.4116	-0.003728599
0.4118	-0.0006550187
0.412	0.0001669367
0.4122	0.001351855
0.4124	0.00490156
0.4126	0.007145525
0.4128	0.00715224
0.413	0.00686771
0.4132	0.007346271
0.4134	0.008493561
0.4136	0.01087003
0.4138	0.01358046
0.414	0.01282262
0.4142	0.01346403
0.4144	0.01531619
0.4146	0.01554913
0.4148	0.01582289
0.415	0.01615852
0.4152	0.01733511
0.4154	0.01716672
0.4156	0.01864571
0.4158	0.02014951
0.416	0.02132874
0.4162	0.02110625
0.4164	0.02140771
0.4166	0.02131402
0.4168	0.01909532
0.417	0.01880437
0.4172	0.02019979
0.4174	0.02201681
0.4176	0.02135783
0.4178	0.02084697
0.418	0.01789393
0.4182	0.01553013
0.4184	0.01641944
0.4186	0.01711397
0.4188	0.01610575
0.419	0.0157185
0.4192	0.01225551
0.4194	0.009506198
0.4196	0.008314347
0.4198	0.008224909
0.42	0.007404705
0.4202	0.004328118
0.4204	0.002612915
0.4206	0.002829337
0.4208	0.0009432936
0.421	-0.001189206
0.4212	-6.179386e-5
0.4214	0.000225958
0.4216	-0.0004605348
0.4218	-0.002467472
0.422	-0.004659768
0.4222	-0.006167171
0.4224	-0.007678858
0.4226	-0.01044729
0.4228	-0.01249214
0.423	-0.01383394
0.4232	-0.01584499
0.4234	-0.01793488
0.4236	-0.0185948
0.4238	-0.01777927
0.424	-0.01759192
0.4242	-0.02019646
0.4244	-0.02397128
0.4246	-0.02876136
0.4248	-0.03251967
0.425	-0.03518319
0.4252	-0.03606294
0.4254	-0.03505931
0.4256	-0.03536186
0.4258	-0.03622184
0.426	-0.03691731
0.4262	-0.03582726
0.4264	-0.03342478
0.4266	-0.03162828
0.4268	-0.02815887
0.427	-0.02519756
0.4272	-0.02254654
0.4274	-0.02097011
0.4276	-0.01776465
0.4278	-0.01637381
0.428	-0.01402458
0.4282	-0.01086846
0.4284	-0.009002122
0.4286	-0.005481882
0.4288	-0.002716217
0.429	-0.0005617018
0.4292	0.001380814
0.4294	0.001812236
0.4296	0.003089898
0.4298	0.005173801
0.43	0.006111969
0.4302	0.007545625
0.4304	0.009440096
0.4306	0.01094517
0.4308	0.01285753
0.431	0.01182401
0.4312	0.01362626
0.4314	0.01662025
0.4316	0.02057329
0.4318	0.02359859
0.432	0.02304067
0.4322	0.022188
0.4324	0.02193533
0.4326	0.02191399
0.4328	0.02075829
0.433	0.01975327
0.4332	0.01962713
0.4334	0.01906888
0.4336	0.01809382
0.4338	0.01796834
0.434	0.01678843
0.4342	0.01559269
0.4344	0.01561981
0.4346	0.01495073
0.4348	0.014827
0.435	0.01552401
0.4352	0.01636717
0.4354	0.01652867
0.4356	0.01774289
0.4358	0.01896281
0.436	0.01871081
0.4362	0.01832481
0.4364	0.01784888
0.4366	0.01800205
0.4368	0.01611256
0.437	0.01595982
0.4372	0.01623689
0.4374	0.01622697
0.4376	0.01607862
0.4378	0.01607233
0.438	0.01592816
0.4382	0.01534672
0.4384	0.0137152
0.4386	0.01264997
0.4388	0.01172452
0.439	0.01043361
0.4392	0.009042022
0.4394	0.008424709
0.4396	0.00719646
0.4398	0.007058268
0.44	0.007068978
0.4402	0.005847694
0.4404	0.005054439
0.4406	0.003252537
0.4408	0.001605942
0.441	-0.0002093091
0.4412	-0.001025131
0.4414	-0.001877208
0.4416	-0.003178548
0.4418	-0.003348538
0.442	-0.004801048
0.4422	-0.007317255
0.4424	-0.009340468
0.4426	-0.01119665
0.4428	-0.01338593
0.443	-0.01514691
0.4432	-0.01535784
0.4434	-0.01614985
0.4436	-0.01835852
0.4438	-0.01966091
0.444	-0.01978367
0.4442	-0.02119479
0.4444	-0.0219581
0.4446	-0.02105969
0.4448	-0.02086305
0.445	-0.02053404
0.4452	-0.02142916
0.4454	-0.02187759
0.4456	-0.02262248
0.4458	-0.02250783
0.446	-0.02122543
0.4462	-0.0225897
0.4464	-0.02255856
0.4466	-0.02235545
0.4468	-0.02174797
0.447	-0.01963823
0.4472	-0.0197772
0.4474	-0.01902926
0.4476	-0.01782664
0.4478	-0.0174792
0.448	-0.0174243
0.4482	-0.01626225
0.4484	-0.0154527
0.4486	-0.01524508
0.4488	-0.0140773
0.449	-0.01271754
0.4492	-0.01149488
0.4494	-0.01138996
0.4496	-0.01020752
0.4498	-0.009529424
0.45	-0.006808786
0.4502	-0.00519707
0.4504	-0.004822538
0.4506	-0.004220075
0.4508	-0.001929075
0.451	-0.0001397771
0.4512	0.002081664
0.4514	0.002809084
0.4516	0.003896894
0.4518	0.006076108
0.452	0.007584787
0.4522	0.006974547
0.4524	0.007212325
0.4526	0.01011908
0.4528	0.01250723
0.453	0.01397605
0.4532	0.01511324
0.4534	0.01587858
0.4536	0.01640281
0.4538	0.01736061
0.454	0.0170761
0.4542	0.01747169
0.4544	0.01772678
0.4546	0.01837973
0.4548	0.01936611
0.455	0.02118581
0.4552	0.0219313
0.4554	0.02303773
0.4556	0.02365516
0.4558	0.02282311
0.456	0.02121926
0.4562	0.02076651
0.4564	0.02216636
0.4566	0.02220624
0.4568	0.02083397
0.457	0.02045089
0.4572	0.02135383
0.4574	0.02098983
0.4576	0.02084329
0.4578	0.01962464
0.458	0.01825488
0.4582	0.01690186
0.4584	0.01568267
0.4586	0.01454064
0.4588	0.01290738
0.459	0.01176542
0.4592	0.01039896
0.4594	0.01182007
0.4596	0.01017154
0.4598	0.006912106
0.46	0.005019001
0.4602	0.005032381
0.4604	0.003527602
0.4606	0.001984726
0.4608	0.0002257884
0.461	-0.002558965
0.4612	-0.005090398
0.4614	-0.007314028
0.4616	-0.009354627
0.4618	-0.01024425
0.462	-0.0105593
0.4622	-0.01224924
0.4624	-0.01394293
0.4626	-0.01328067
0.4628	-0.01345963
0.463	-0.01463405
0.4632	-0.01598129
0.4634	-0.01756614
0.4636	-0.01676318
0.4638	-0.01702169
0.464	-0.01812555
0.4642	-0.01813235
0.4644	-0.01887474
0.4646	-0.01950867
0.4648	-0.02037973
0.465	-0.02112323
0.4652	-0.02260291
0.4654	-0.0216946
0.4656	-0.0199549
0.4658	-0.01950603
0.466	-0.02105987
0.4662	-0.02282505
0.4664	-0.02341223
0.4666	-0.02406234
0.4668	-0.02483954
0.467	-0.02361349
0.4672	-0.0215799
0.4674	-0.02171837
0.4676	-0.02176498
0.4678	-0.02050957
0.468	-0.01774971
0.4682	-0.01569927
0.4684	-0.01481032
0.4686	-0.01271428
0.4688	-0.009727423
0.469	-0.01035736
0.4692	-0.01088754
0.4694	-0.0101303
0.4696	-0.009381553
0.4698	-0.007561881
0.47	-0.005861307
0.4702	-0.005305675
0.4704	-0.003754596
0.4706	-0.0007876357
0.4708	0.001598796
0.471	0.002567692
0.4712	0.003705594
0.4714	0.004312818
0.4716	0.005053861
0.4718	0.008297027
0.472	0.009981832
0.4722	0.01388107
0.4724	0.01590268
0.4726	0.01569283
0.4728	0.01821166
0.473	0.0191618
0.4732	0.02044604
0.4734	0.02046006
0.4736	0.0212247
0.4738	0.02262049
0.474	0.02305213
0.4742	0.02338532
0.4744	0.02430481
0.4746	0.02479081
0.4748	0.02629577
0.475	0.02826652
0.4752	0.02803806
0.4754	0.02792773
0.4756	0.02948405
0.4758	0.02964173
0.476	0.02815683
0.4762	0.02767264
0.4764	0.02681557
0.4766	0.02572431
0.4768	0.02575346
0.477	0.02544106
0.4772	0.02510504
0.4774	0.02461618
0.4776	0.02363697
0.4778	0.02217533
0.478	0.02240051
0.4782	0.02083927
0.4784	0.0214147
0.4786	0.01952658
0.4788	0.01736043
0.479	0.01547976
0.4792	0.01434784
0.4794	0.01194835
0.4796	0.01031054
0.4798	0.008404794
0.48	0.006303987
0.4802	0.003666872
0.4804	0.0004887208
0.4806	-0.002379797
0.4808	-0.004385037
0.481	-0.006445175
0.4812	-0.007991443
0.4814	-0.009096377
0.4816	-0.01163153
0.4818	-0.01494607
0.482	-0.01762064
0.4822	-0.01989404
0.4824	-0.02199608
0.4826	-0.02462582
0.4828	-0.02747353
0.483	-0.02701988
0.4832	-0.02728429
0.4834	-0.02873319
0.4836	-0.0300292
0.4838	-0.03134609
0.484	-0.03181136
0.4842	-0.031271
0.4844	-0.03176642
0.4846	-0.03272902
0.4848	-0.03069334
0.485	-0.02864055
0.4852	-0.02661446
0.4854	-0.02661206
0.4856	-0.02479756
0.4858	-0.02394526
0.486	-0.02489437
0.4862	-0.02280348
0.4864	-0.02146932
0.4866	-0.0221122
0.4868	-0.02244647
0.487	-0.021658
0.4872	-0.02028862
0.4874	-0.01808906
0.4876	-0.01858521
0.4878	-0.01726449
0.488	-0.01720252
0.4882	-0.01556025
0.4884	-0.01501361
0.4886	-0.01403781
0.4888	-0.0118528
0.489	-0.01054489
0.4892	-0.009813883
0.4894	-0.00882699
0.4896	-0.006865903
0.4898	-0.006929419
0.49	-0.007274998
0.4902	-0.005743726
0.4904	-0.003190218
0.4906	-0.001703904
0.4908	-0.0002862642
0.491	0.0009605282
0.4912	0.003075829
0.4914	0.004843412
0.4916	0.007272777
0.4918	0.007864557
0.492	0.008517034
0.4922	0.01161273
0.4924	0.01417063
0.4926	0.01405299
0.4928	0.01426162
0.493	0.01521799
0.4932	0.01629276
0.4934	0.01770364
0.4936	0.01862096
0.4938	0.01918919
0.494	0.01880295
0.4942	0.02007696
0.4944	0.02152669
0.4946	0.02201062
0.4948	0.02209176
0.495	0.0231991
0.4952	0.02380414
0.4954	0.0226222
0.4956	0.02436843
0.4958	0.02470178
0.496	0.02466287
0.4962	0.02464003
0.4964	0.02354967
0.4966	0.02281737
0.4968	0.02243587
0.497	0.02243563
0.4972	0.02276571
0.4974	0.02307851
0.4976	0.02324293
0.4978	0.02210854
0.498	0.02066707
0.4982	0.02008845
0.4984	0.02004133
0.4986	0.01911071
0.4988	0.01720979
0.499	0.01548922
0.4992	0.01478847
0.4994	0.01446265
0.4996	0.0136785
0.4998	0.01292918
0.5	0.01157206
0.5002	0.008750514
0.5004	0.007534557
0.5006	0.005652678
0.5008	0.004743916
0.501	0.004554573
0.5012	0.003261755
0.5014	0.001763533
0.5016	0.0011855
0.5018	-0.0003877881
0.502	-0.003212954
0.5022	-0.002922932
0.5024	-0.004664947
0.5026	-0.007465744
0.5028	-0.009570614
0.503	-0.01222141
0.5032	-0.01279088
0.5034	-0.01447764
0.5036	-0.01471549
0.5038	-0.01494345
0.504	-0.01555744
0.5042	-0.01701595
0.5044	-0.01984853
0.5046	-0.0202859
0.5048	-0.02041696
0.505	-0.02110511
0.5052	-0.02221785
0.5054	-0.02160888
0.5056	-0.02159092
0.5058	-0.02349536
0.506	-0.02331451
0.5062	-0.02306844
0.5064	-0.02439073
0.5066	-0.02464274
0.5068	-0.0234668
0.507	-0.02098992
0.5072	-0.02138554
0.5074	-0.02047665
0.5076	-0.02090865
0.5078	-0.02137384
0.508	-0.01988156
0.5082	-0.01743012
0.5084	-0.01597113
0.5086	-0.01536096
0.5088	-0.01603254
0.509	-0.01690089
0.5092	-0.01599328
0.5094	-0.01717125
0.5096	-0.01681878
0.5098	-0.01558002
0.51	-0.01495997
0.5102	-0.01451691
0.5104	-0.01329585
0.5106	-0.01118155
0.5108	-0.01026987
0.511	-0.008836123
0.5112	-0.006421489
0.5114	-0.005204095
0.5116	-0.00437142
0.5118	-0.003852152
0.512	-0.002423997
0.5122	0.0007162975
0.5124	0.002641419
0.5126	0.003808612
0.5128	0.007243478
0.513	0.01016947
0.5132	0.01038377
0.5134	0.01151067
0.5136	0.01226763
0.5138	0.01550961
0.514	0.01543894
0.5142	0.01554688
0.5144	0.01560325
0.5146	0.01672764
0.5148	0.01702356
0.515	0.01838816
0.5152	0.01943879
0.5154	0.0185961
0.5156	0.01890932
0.5158	0.01969916
0.516	0.01975329
0.5162	0.0204185
0.5164	0.0209847
0.5166	0.01982178
0.5168	0.01949383
0.517	0.01842711
0.5172	0.01799185
0.5174	0.01839403
0.5176	0.01829799
0.5178	0.01865843
0.518	0.01801182
0.5182	0.01810988
0.5184	0.01572675
0.5186	0.0151799
0.5188	0.01391036
0.519	0.01317662
0.5192	0.01300495
0.5194	0.01184576
0.5196	0.01125005
0.5198	0.009553592
0.52	0.007772448
0.5202	0.006614862
0.5204	0.005249483
0.5206	0.003696673
0.5208	0.003308732
0.521	0.002774874
0.5212	0.003252279
0.5214	0.003198127
0.5216	0.001775424
0.5218	0.0003375843
0.522	-0.001315046
0.5222	-0.0006453715
0.5224	-0.001135319
0.5226	-0.001173535
0.5228	-3.65707e-5
0.523	0.001241483
0.5232	-0.0002108931
0.5234	-0.002441352
0.5236	-0.003424051
0.5238	-0.004245202
0.524	-0.004951225
0.5242	-0.007097811
0.5244	-0.01024549
0.5246	-0.01021942
0.5248	-0.01237299
0.525	-0.01438212
0.5252	-0.01311649
0.5254	-0.01275253
0.5256	-0.0133981
0.5258	-0.013936
0.526	-0.01605517
0.5262	-0.01877604
0.5264	-0.02063999
0.5266	-0.02151511
0.5268	-0.02090282
0.527	-0.02055546
0.5272	-0.02123756
0.5274	-0.01985808
0.5276	-0.02015124
0.5278	-0.02235015
0.528	-0.02300061
0.5282	-0.02361474
0.5284	-0.02260332
0.5286	-0.02292599
0.5288	-0.02256281
0.529	-0.02131865
0.5292	-0.02032998
0.5294	-0.0202758
0.5296	-0.01997402
0.5298	-0.0191626
0.53	-0.01777631
0.5302	-0.01648645
0.5304	-0.01535843
0.5306	-0.01474311
0.5308	-0.01435786
0.531	-0.01209076
0.5312	-0.01199096
0.5314	-0.01083863
0.5316	-0.008907896
0.5318	-0.005197111
0.532	-0.003426766
0.5322	-0.001511349
0.5324	0.00060466
0.5326	0.0008762692
0.5328	0.002451344
0.533	0.003031069
0.5332	0.005687153
0.5334	0.009184418
0.5336	0.009355372
0.5338	0.009872295
0.534	0.01245734
0.5342	0.01474142
0.5344	0.01712169
0.5346	0.01859807
0.5348	0.01992198
0.535	0.01955074
0.5352	0.02009109
0.5354	0.0218166
0.5356	0.02219264
0.5358	0.02307548
0.536	0.02305239
0.5362	0.02266846
0.5364	0.02313639
0.5366	0.02496587
0.5368	0.02497393
0.537	0.02523131
0.5372	0.02569992
0.5374	0.02519435
0.5376	0.02452323
0.5378	0.02434999
0.538	0.02356481
0.5382	0.02423606
0.5384	0.02311855
0.5386	0.02103733
0.5388	0.0202833
0.539	0.02097646
0.5392	0.01975468
0.5394	0.01838512
0.5396	0.01674604
0.5398	0.0159911
0.54	0.01566975
0.5402	0.01504671
0.5404	0.01550564
0.5406	0.01332909
0.5408	0.01046791
0.541	0.009155966
0.5412	0.007559218
0.5414	0.005270362
0.5416	0.003360091
0.5418	0.0003174583
0.542	-0.002856755
0.5422	-0.003441527
0.5424	-0.004444978
0.5426	-0.007173117
0.5428	-0.007952092
0.543	-0.009617658
0.5432	-0.01035505
0.5434	-0.01155485
0.5436	-0.01209897
0.5438	-0.01196317
0.544	-0.01365609
0.5442	-0.01622676
0.5444	-0.01680098
0.5446	-0.01788522
0.5448	-0.01786665
0.545	-0.01754379
0.5452	-0.01723663
0.5454	-0.0168549
0.5456	-0.01739643
0.5458	-0.01951992
0.546	-0.01960746
0.5462	-0.01932937
0.5464	-0.01995485
0.5466	-0.01944984
0.5468	-0.0185607
0.547	-0.01762785
0.5472	-0.01670494
0.5474	-0.01465936
0.5476	-0.01346438
0.5478	-0.01280356
0.548	-0.01304547
0.5482	-0.01289589
0.5484	-0.01276864
0.5486	-0.01157381
0.5488	-0.01202968
0.549	-0.01188245
0.5492	-0.01143449
0.5494	-0.01089786
0.5496	-0.01103758
0.5498	-0.009981683
0.55	-0.008612779
0.5502	-0.007592929
0.5504	-0.006980012
0.5506	-0.005067262
0.5508	-0.003034629
0.551	-0.001799013
0.5512	0.0001556423
0.5514	0.001839062
0.5516	0.004561157
0.5518	0.006060946
0.552	0.007325989
0.5522	0.008256723
0.5524	0.01001147
0.5526	0.01113248
0.5528	0.01176586
0.553	0.0104571
0.5532	0.004634319
0.5534	-0.0005453365
0.5536	-0.004834438
0.5538	-0.006783229
0.554	-0.006356097
0.5542	-0.005522323
0.5544	-0.003918282
0.5546	-0.002455707
0.5548	-0.0003326205
0.555	0.001976591
0.5552	0.003779874
0.5554	0.004969608
0.5556	0.007053115
0.5558	0.01161733
0.556	0.01381662
0.5562	0.01556545
0.5564	0.01732013
0.5566	0.01911162
0.5568	0.02055966
0.557	0.02275581
0.5572	0.02541348
0.5574	0.02683883
0.5576	0.02748629
0.5578	0.0277125
0.558	0.02877896
0.5582	0.0290112
0.5584	0.0291427
0.5586	0.02713813
0.5588	0.02425625
0.559	0.02306152
0.5592	0.02325789
0.5594	0.02472212
0.5596	0.02392319
0.5598	0.02143982
0.56	0.02079852
0.5602	0.01992804
0.5604	0.01751649
0.5606	0.01507595
0.5608	0.01324981
0.561	0.01171243
0.5612	0.00958785
0.5614	0.008491057
0.5616	0.005236669
0.5618	0.002915858
0.562	0.0002504728
0.5622	-0.003013791
0.5624	-0.007142635
0.5626	-0.00926808
0.5628	-0.008619432
0.563	-0.00835647
0.5632	-0.006807692
0.5634	-0.005623679
0.5636	-0.00416078
0.5638	-0.004446353
0.564	-0.005393239
0.5642	-0.007134802
0.5644	-0.009401049
0.5646	-0.01198732
0.5648	-0.01325914
0.565	-0.01498576
0.5652	-0.01772722
0.5654	-0.01779677
0.5656	-0.02003375
0.5658	-0.02353689
0.566	-0.02416166
0.5662	-0.02236904
0.5664	-0.02116306
0.5666	-0.02052007
0.5668	-0.02160821
0.567	-0.02194213
0.5672	-0.02280906
0.5674	-0.02238978
0.5676	-0.02274265
0.5678	-0.02290478
0.568	-0.02177229
0.5682	-0.01996347
0.5684	-0.01799444
0.5686	-0.01692798
0.5688	-0.01522326
0.569	-0.01333348
0.5692	-0.01290786
0.5694	-0.01126054
0.5696	-0.0102281
0.5698	-0.008065147
0.57	-0.006403803
0.5702	-0.006249007
0.5704	-0.005121114
0.5706	-0.00345959
0.5708	-0.002539559
0.571	-0.002405256
0.5712	-0.0007168
0.5714	2.90193e-5
0.5716	0.001954623
0.5718	0.002794466
0.572	0.002755561
0.5722	0.004350304
0.5724	0.006071867
0.5726	0.006378792
0.5728	0.006246715
0.573	0.006959052
0.5732	0.005663667
0.5734	0.005908516
0.5736	0.00659817
0.5738	0.005075015
0.574	0.002982164
0.5742	0.002691189
0.5744	0.003641068
0.5746	0.002618019
0.5748	0.002741965
0.575	0.005311342
0.5752	0.006624657
0.5754	0.007028485
0.5756	0.006920003
0.5758	0.006554428
0.576	0.005606443
0.5762	0.005636037
0.5764	0.006361645
0.5766	0.007410708
0.5768	0.008159376
0.577	0.008553069
0.5772	0.009002329
0.5774	0.008915169
0.5776	0.0101535
0.5778	0.01274613
0.578	0.01404232
0.5782	0.01356712
0.5784	0.01228136
0.5786	0.01164462
0.5788	0.01188758
0.579	0.01139758
0.5792	0.01003697
0.5794	0.009733783
0.5796	0.008005937
0.5798	0.006476775
0.58	0.005909545
0.5802	0.004222354
0.5804	0.003427103
0.5806	0.003472497
0.5808	0.002802159
0.581	0.00115699
0.5812	0.0001618559
0.5814	0.0002234777
0.5816	-0.002059558
0.5818	-0.002686626
0.582	-0.003160627
0.5822	-0.001551896
0.5824	-0.001559158
0.5826	-0.003839425
0.5828	-0.00551368
0.583	-0.005096092
0.5832	-0.004717426
0.5834	-0.005693484
0.5836	-0.006669551
0.5838	-0.007678459
0.584	-0.007153128
0.5842	-0.007338641
0.5844	-0.008883406
0.5846	-0.01154603
0.5848	-0.01433775
0.585	-0.01736437
0.5852	-0.0171925
0.5854	-0.01719112
0.5856	-0.01733149
0.5858	-0.01652519
0.586	-0.01734274
0.5862	-0.01873256
0.5864	-0.01991117
0.5866	-0.02035115
0.5868	-0.01956164
0.587	-0.01923557
0.5872	-0.0184916
0.5874	-0.01825555
0.5876	-0.01817521
0.5878	-0.01706824
0.588	-0.01700687
0.5882	-0.01786337
0.5884	-0.0184257
0.5886	-0.01733315
0.5888	-0.01681034
0.589	-0.01571716
0.5892	-0.01461234
0.5894	-0.01321592
0.5896	-0.01127766
0.5898	-0.01148561
0.59	-0.01121332
0.5902	-0.0103285
0.5904	-0.007943296
0.5906	-0.005391567
0.5908	-0.003766774
0.591	-0.0008628057
0.5912	6.630191e-5
0.5914	0.0011544
0.5916	0.003543733
0.5918	0.004557223
0.592	0.007403213
0.5922	0.01024076
0.5924	0.01043259
0.5926	0.01111567
0.5928	0.01216944
0.593	0.01310722
0.5932	0.01478725
0.5934	0.01616481
0.5936	0.01741629
0.5938	0.0182263
0.594	0.01893027
0.5942	0.01810389
0.5944	0.01775427
0.5946	0.01850851
0.5948	0.01840539
0.595	0.01842601
0.5952	0.02000773
0.5954	0.01932001
0.5956	0.01868602
0.5958	0.01898503
0.596	0.01882289
0.5962	0.01925761
0.5964	0.01964603
0.5966	0.01841007
0.5968	0.01829986
0.597	0.01694987
0.5972	0.01519095
0.5974	0.01443622
0.5976	0.01550025
0.5978	0.01536447
0.598	0.01484163
0.5982	0.01507553
0.5984	0.01365192
0.5986	0.01234253
0.5988	0.01217726
0.599	0.01261435
0.5992	0.01018696
0.5994	0.008982521
0.5996	0.008345887
0.5998	0.009277495
0.6	0.009957192
0.6002	0.007502818
0.6004	0.004945157
0.6006	0.001394897
0.6008	0.0004045844
0.601	-0.001095067
0.6012	-0.00106435
0.6014	-0.002072762
0.6016	-0.003653867
0.6018	-0.004359754
0.602	-0.006133379
0.6022	-0.008490837
0.6024	-0.01014423
0.6026	-0.01126888
0.6028	-0.01269262
0.603	-0.01459273
0.6032	-0.01582243
0.6034	-0.01731567
0.6036	-0.01819828
0.6038	-0.01927645
0.604	-0.01967258
0.6042	-0.02091378
0.6044	-0.02138571
0.6046	-0.02111131
0.6048	-0.02082209
0.605	-0.02215138
0.6052	-0.0248513
0.6054	-0.0253441
0.6056	-0.02534591
0.6058	-0.02267551
0.606	-0.01975803
0.6062	-0.01836171
0.6064	-0.01689317
0.6066	-0.01413571
0.6068	-0.01163949
0.607	-0.01026384
0.6072	-0.01041543
0.6074	-0.008144577
0.6076	-0.005683966
0.6078	-0.003844585
0.608	-0.003659422
0.6082	-0.003966262
0.6084	-0.002102129
0.6086	-0.0009011628
0.6088	-0.0005486622
0.609	0.0003691348
0.6092	0.001069633
0.6094	0.0003874856
0.6096	0.002132754
0.6098	0.00331668
0.61	0.004894707
0.6102	0.005614243
0.6104	0.008016882
0.6106	0.01130834
0.6108	0.01330571
0.611	0.01354919
0.6112	0.01352431
0.6114	0.01380106
0.6116	0.01538829
0.6118	0.01441831
0.612	0.01321299
0.6122	0.01414552
0.6124	0.01488311
0.6126	0.01524006
0.6128	0.01618552
0.613	0.01734322
0.6132	0.01998532
0.6134	0.0200452
0.6136	0.02010569
0.6138	0.02052994
0.614	0.0205341
0.6142	0.02123245
0.6144	0.02023568
0.6146	0.0179185
0.6148	0.01702586
0.615	0.01629675
0.6152	0.01426928
0.6154	0.01328696
0.6156	0.01343398
0.6158	0.01117209
0.616	0.009318215
0.6162	0.007479827
0.6164	0.006625664
0.6166	0.003477933
0.6168	0.0001993279
0.617	-0.002268424
0.6172	-0.003450414
0.6174	-0.003476429
0.6176	-0.003621024
0.6178	-0.002486944
0.618	-0.002072044
0.6182	-0.001696274
0.6184	-0.002850928
0.6186	-0.002513001
0.6188	-0.002724845
0.619	-0.004063152
0.6192	-0.004041566
0.6194	-0.004322764
0.6196	-0.005453917
0.6198	-0.005789893
0.62	-0.006129514
0.6202	-0.004627041
0.6204	-0.002521802
0.6206	-0.002775484
0.6208	-0.003678343
0.621	-0.003551626
0.6212	-0.004273718
0.6214	-0.004991957
0.6216	-0.005168673
0.6218	-0.005514484
0.622	-0.007928642
0.6222	-0.009922471
0.6224	-0.01137792
0.6226	-0.01392238
0.6228	-0.0142171
0.623	-0.01482546
0.6232	-0.01599153
0.6234	-0.0167951
0.6236	-0.01741851
0.6238	-0.01738426
0.624	-0.01857611
0.6242	-0.0191767
0.6244	-0.01808942
0.6246	-0.01936039
0.6248	-0.01801033
0.625	-0.01849492
0.6252	-0.02101111
0.6254	-0.02090701
0.6256	-0.01917643
0.6258	-0.01844781
0.626	-0.01917302
0.6262	-0.01869153
0.6264	-0.01808872
0.6266	-0.01876287
0.6268	-0.01778425
0.627	-0.0173681
0.6272	-0.01681881
0.6274	-0.01676722
0.6276	-0.0181387
0.6278	-0.01770082
0.628	-0.01680311
0.6282	-0.01598642
0.6284	-0.01435091
0.6286	-0.012171
0.6288	-0.009187114
0.629	-0.005418146
0.6292	-0.005561248
0.6294	-0.005381221
0.6296	-0.003440386
0.6298	-0.001686074
0.63	-0.002597946
0.6302	-0.0007639905
0.6304	0.000205085
0.6306	0.002425672
0.6308	0.004096345
0.631	0.005044778
0.6312	0.00671914
0.6314	0.007172293
0.6316	0.007230551
0.6318	0.00789902
0.632	0.0112545
0.6322	0.01486319
0.6324	0.0163014
0.6326	0.01692418
0.6328	0.01731824
0.633	0.0189964
0.6332	0.02021317
0.6334	0.02252732
0.6336	0.02308458
0.6338	0.02434387
0.634	0.02572707
0.6342	0.02503258
0.6344	0.02498193
0.6346	0.02453889
0.6348	0.02352169
0.635	0.02429398
0.6352	0.02452185
0.6354	0.02388153
0.6356	0.0244595
0.6358	0.02462702
0.636	0.0244907
0.6362	0.02363314
0.6364	0.02452807
0.6366	0.02385988
0.6368	0.02334492
0.637	0.02295322
0.6372	0.02172732
0.6374	0.02050826
0.6376	0.01987795
0.6378	0.01750743
0.638	0.01502736
0.6382	0.01257079
0.6384	0.01281793
0.6386	0.01272426
0.6388	0.01071572
0.639	0.009732225
0.6392	0.009172441
0.6394	0.008758118
0.6396	0.005932356
0.6398	0.002213761
0.64	-0.0005353133
0.6402	-0.001190101
0.6404	-0.0008493865
0.6406	-0.002690157
0.6408	-0.003591167
0.641	-0.002760057
0.6412	-0.002600103
0.6414	-0.005062512
0.6416	-0.006204155
0.6418	-0.007018054
0.642	-0.008755369
0.6422	-0.01037541
0.6424	-0.01320273
0.6426	-0.01563364
0.6428	-0.01606461
0.643	-0.0141495
0.6432	-0.01127093
0.6434	-0.009324439
0.6436	-0.007505708
0.6438	-0.005021358
0.644	-0.00396687
0.6442	-0.005856122
0.6444	-0.008051251
0.6446	-0.009114336
0.6448	-0.01055047
0.645	-0.01123032
0.6452	-0.01064173
0.6454	-0.0121212
0.6456	-0.01292255
0.6458	-0.01207018
0.646	-0.01181294
0.6462	-0.01136099
0.6464	-0.0100003
0.6466	-0.00854162
0.6468	-0.006907422
0.647	-0.004846825
0.6472	-0.003190234
0.6474	-0.001620605
0.6476	-0.001801912
0.6478	-0.001807325
0.648	-0.001046132
0.6482	-0.002614532
0.6484	-0.001975356
0.6486	-0.001252303
0.6488	-0.0002607241
0.649	0.001149476
0.6492	0.003475385
0.6494	0.006538392
0.6496	0.00992425
0.6498	0.01348902
0.65	0.0166682
0.6502	0.02111231
0.6504	0.02285959
0.6506	0.02370823
0.6508	0.02599082
0.651	0.02569053
0.6512	0.02453918
0.6514	0.0242005
0.6516	0.02507772
0.6518	0.02334117
0.652	0.02257667
0.6522	0.02094165
0.6524	0.02192474
0.6526	0.02391615
0.6528	0.02296606
0.653	0.02287671
0.6532	0.0219182
0.6534	0.02101044
0.6536	0.01988947
0.6538	0.01893391
0.654	0.01846432
0.6542	0.01656842
0.6544	0.01534029
0.6546	0.01375395
0.6548	0.01165296
0.655	0.009057238
0.6552	0.008360727
0.6554	0.007907831
0.6556	0.005235541
0.6558	0.001628572
0.656	-0.001096626
0.6562	-0.0008959885
0.6564	-0.003185657
0.6566	-0.005326352
0.6568	-0.008197425
0.657	-0.01331167
0.6572	-0.01699807
0.6574	-0.01989933
0.6576	-0.02481827
0.6578	-0.02988206
0.658	-0.03547518
0.6582	-0.03735026
0.6584	-0.03937388
0.6586	-0.04023125
0.6588	-0.04096453
0.659	-0.0421089
0.6592	-0.04449664
0.6594	-0.0479632
0.6596	-0.05102136
0.6598	-0.05285321
0.66	-0.05467908
0.6602	-0.05649753
0.6604	-0.05680327
0.6606	-0.05480827
0.6608	-0.05264708
0.661	-0.04794757
0.6612	-0.04558044
0.6614	-0.04389778
0.6616	-0.04275065
0.6618	-0.04350232
0.662	-0.04204214
0.6622	-0.03754784
0.6624	-0.03465301
0.6626	-0.03226587
0.6628	-0.03036696
0.663	-0.02739766
0.6632	-0.02703745
0.6634	-0.02604468
0.6636	-0.02323414
0.6638	-0.0202075
0.664	-0.01938096
0.6642	-0.01916908
0.6644	-0.0193952
0.6646	-0.01922097
0.6648	-0.0162595
0.665	-0.01580687
0.6652	-0.01609608
0.6654	-0.01480634
0.6656	-0.01511573
0.6658	-0.01656481
0.666	-0.01668554
0.6662	-0.01677129
0.6664	-0.01608188
0.6666	-0.0145624
0.6668	-0.01264034
0.667	-0.01050107
0.6672	-0.0093654
0.6674	-0.007390684
0.6676	-0.003793663
0.6678	-0.001307843
0.668	0.0008510984
0.6682	0.001955442
0.6684	0.004340956
0.6686	0.008388409
0.6688	0.01236956
0.669	0.01295173
0.6692	0.01146777
0.6694	0.009992912
0.6696	0.008002535
0.6698	0.005781328
0.67	0.003838403
0.6702	0.003347124
0.6704	0.005105262
0.6706	0.007169032
0.6708	0.007638957
0.671	0.01010496
0.6712	0.01663186
0.6714	0.02677258
0.6716	0.04225167
0.6718	0.0567437
0.672	0.06649774
0.6722	0.07405452
0.6724	0.07842132
0.6726	0.08293974
0.6728	0.08698263
0.673	0.08750272
0.6732	0.08731839
0.6734	0.08736285
0.6736	0.08757132
0.6738	0.08617711
0.674	0.08530708
0.6742	0.0842841
0.6744	0.08356873
0.6746	0.08255833
0.6748	0.08118921
0.675	0.08180504
0.6752	0.08442695
0.6754	0.08555171
0.6756	0.08538803
0.6758	0.08614355
0.676	0.08721736
0.6762	0.08863457
0.6764	0.09038194
0.6766	0.09117603
0.6768	0.09210952
0.677	0.09258451
0.6772	0.09220102
0.6774	0.08908191
0.6776	0.08381071
0.6778	0.07606905
0.678	0.06554157
0.6782	0.05597395
0.6784	0.04642104
0.6786	0.03536128
0.6788	0.02648968
0.679	0.01923476
0.6792	0.01430771
0.6794	0.009010477
0.6796	0.00150812
0.6798	-0.003339327
0.68	-0.00872225
0.6802	-0.01376713
0.6804	-0.01811096
0.6806	-0.02345458
0.6808	-0.03043492
0.681	-0.04051727
0.6812	-0.0480014
0.6814	-0.05582634
0.6816	-0.06425277
0.6818	-0.07100962
0.682	-0.07785277
0.6822	-0.08297039
0.6824	-0.08378134
0.6826	-0.08063874
0.6828	-0.07765821
0.683	-0.07110413
0.6832	-0.06495946
0.6834	-0.05941849
0.6836	-0.05176587
0.6838	-0.04558709
0.684	-0.04157899
0.6842	-0.03861632
0.6844	-0.03648657
0.6846	-0.03495912
0.6848	-0.03772318
0.685	-0.04101604
0.6852	-0.04484882
0.6854	-0.0468118
0.6856	-0.04843073
0.6858	-0.04989327
0.686	-0.04990545
0.6862	-0.05086011
0.6864	-0.05032656
0.6866	-0.04880589
0.6868	-0.04468878
0.687	-0.03831553
0.6872	-0.02925535
0.6874	-0.01544495
0.6876	-0.001493182
0.6878	0.01163651
0.688	0.02149309
0.6882	0.03291184
0.6884	0.04528274
0.6886	0.05646957
0.6888	0.06299566
0.689	0.06432703
0.6892	0.0645989
0.6894	0.06229366
0.6896	0.05750151
0.6898	0.0516535
0.69	0.04866035
0.6902	0.04803669
0.6904	0.04989705
0.6906	0.05257326
0.6908	0.05330155
0.691	0.04979851
0.6912	0.04539705
0.6914	0.03849811
0.6916	0.03091353
0.6918	0.02444144
0.692	0.01790155
0.6922	0.01148089
0.6924	0.006707643
0.6926	0.0018942
0.6928	-0.005167753
0.693	-0.01084078
0.6932	-0.0155374
0.6934	-0.01955752
0.6936	-0.02144959
0.6938	-0.02039065
0.694	-0.02044803
0.6942	-0.02311022
0.6944	-0.02768022
0.6946	-0.03437712
0.6948	-0.04314131
0.695	-0.05355255
0.6952	-0.06434142
0.6954	-0.07438769
0.6956	-0.08146092
0.6958	-0.08714331
0.696	-0.09564649
0.6962	-0.1035683
0.6964	-0.110462
0.6966	-0.1151223
0.6968	-0.1191206
0.697	-0.1209586
0.6972	-0.1218965
0.6974	-0.1212821
0.6976	-0.1198971
0.6978	-0.1187732
0.698	-0.1165157
0.6982	-0.1164531
0.6984	-0.1184685
0.6986	-0.1223865
0.6988	-0.1253402
0.699	-0.125902
0.6992	-0.1249047
0.6994	-0.1252467
0.6996	-0.1235644
0.6998	-0.1213857
0.7	-0.1179238
0.7002	-0.1114937
0.7004	-0.1062985
0.7006	-0.1031539
0.7008	-0.09892591
0.701	-0.09200239
0.7012	-0.08444003
0.7014	-0.07488455
0.7016	-0.06304304
0.7018	-0.04878215
0.702	-0.03804509
0.7022	-0.029539
0.7024	-0.02313488
0.7026	-0.01597535
0.7028	-0.008338305
0.703	-0.0005547948
0.7032	0.005522703
0.7034	0.009036162
0.7036	0.0136325
0.7038	0.01776411
0.704	0.01962633
0.7042	0.02295116
0.7044	0.02888882
0.7046	0.0338113
0.7048	0.03519064
0.705	0.03570868
0.7052	0.03743155
0.7054	0.04024672
0.7056	0.04302074
0.7058	0.04525923
0.706	0.04550131
0.7062	0.04342687
0.7064	0.04212545
0.7066	0.04046308
0.7068	0.03776848
0.707	0.03616973
0.7072	0.0349773
0.7074	0.03324509
0.7076	0.03203288
0.7078	0.03105506
0.708	0.02933092
0.7082	0.02793492
0.7084	0.02665731
0.7086	0.02655492
0.7088	0.02665927
0.709	0.02772164
0.7092	0.02912018
0.7094	0.03196362
0.7096	0.03441424
0.7098	0.03502951
0.71	0.03812135
0.7102	0.04057242
0.7104	0.0420507
0.7106	0.04230074
0.7108	0.04256699
0.711	0.04175631
0.7112	0.0414307
0.7114	0.04327724
0.7116	0.04461698
0.7118	0.04540841
0.712	0.04808475
0.7122	0.0504404
0.7124	0.05049463
0.7126	0.0498203
0.7128	0.048715
0.713	0.04774948
0.7132	0.04637298
0.7134	0.04568556
0.7136	0.04597866
0.7138	0.04873821
0.714	0.05092746
0.7142	0.05489437
0.7144	0.05731795
0.7146	0.05761867
0.7148	0.06031321
0.715	0.06409327
0.7152	0.06652188
0.7154	0.06939951
0.7156	0.07023561
0.7158	0.06932276
0.716	0.06830513
0.7162	0.06635337
0.7164	0.06597718
0.7166	0.06690981
0.7168	0.06811936
0.717	0.07053684
0.7172	0.07383092
0.7174	0.07393415
0.7176	0.07074896
0.7178	0.0672678
0.718	0.06475873
0.7182	0.05980393
0.7184	0.05542701
0.7186	0.04996616
0.7188	0.04346845
0.719	0.03828568
0.7192	0.03333717
0.7194	0.03001401
0.7196	0.02555454
0.7198	0.02355181
0.72	0.01976207
0.7202	0.01584774
0.7204	0.0128963
0.7206	0.009914039
0.7208	0.006114312
0.721	0.004466866
0.7212	0.002614763
0.7214	-0.0008680604
0.7216	-0.002594547
0.7218	-0.005386372
0.722	-0.006194346
0.7222	-0.007695206
0.7224	-0.008975591
0.7226	-0.00772975
0.7228	-0.003394119
0.723	0.0009070591
0.7232	0.001679641
0.7234	0.00254431
0.7236	0.001102211
0.7238	-0.00141835
0.724	-0.002190806
0.7242	-0.000951776
0.7244	-0.001505284
0.7246	-0.005492559
0.7248	-0.007294454
0.725	-0.008822955
0.7252	-0.01255006
0.7254	-0.01683724
0.7256	-0.02030986
0.7258	-0.02154446
0.726	-0.02070072
0.7262	-0.01857938
0.7264	-0.01574349
0.7266	-0.01319262
0.7268	-0.01103495
0.727	-0.01242801
0.7272	-0.01391843
0.7274	-0.01573118
0.7276	-0.01694626
0.7278	-0.02058072
0.728	-0.02553333
0.7282	-0.02889794
0.7284	-0.03378843
0.7286	-0.03876763
0.7288	-0.0433868
0.729	-0.04931272
0.7292	-0.05427638
0.7294	-0.05919055
0.7296	-0.06530209
0.7298	-0.06967089
0.73	-0.07525455
0.7302	-0.0805611
0.7304	-0.08577299
0.7306	-0.09081645
0.7308	-0.09702117
0.731	-0.1014639
0.7312	-0.1013388
0.7314	-0.1010623
0.7316	-0.1024679
0.7318	-0.10549
0.732	-0.1049596
0.7322	-0.1024188
0.7324	-0.1006624
0.7326	-0.09693157
0.7328	-0.09192074
0.733	-0.08603457
0.7332	-0.07729527
0.7334	-0.06417221
0.7336	-0.05085936
0.7338	-0.03927115
0.734	-0.02779511
0.7342	-0.01639009
0.7344	-0.004409549
0.7346	0.005140997
0.7348	0.01374595
0.735	0.0208503
0.7352	0.02635928
0.7354	0.03095952
0.7356	0.03301904
0.7358	0.03714096
0.736	0.03917335
0.7362	0.04077914
0.7364	0.04343683
0.7366	0.04407852
0.7368	0.04705081
0.737	0.05205556
0.7372	0.05671859
0.7374	0.06091217
0.7376	0.06468059
0.7378	0.06695107
0.738	0.06609547
0.7382	0.06683172
0.7384	0.06873666
0.7386	0.07101948
0.7388	0.07180478
0.739	0.07149659
0.7392	0.0702771
0.7394	0.06839118
0.7396	0.06670007
0.7398	0.06545879
0.74	0.06463281
0.7402	0.06350916
0.7404	0.06397276
0.7406	0.06368055
0.7408	0.06423795
0.741	0.06282902
0.7412	0.06304991
0.7414	0.06600972
0.7416	0.07005315
0.7418	0.07719248
0.742	0.08196757
0.7422	0.08826153
0.7424	0.09713162
0.7426	0.1066576
0.7428	0.1168053
0.743	0.1276098
0.7432	0.1367345
0.7434	0.1464707
0.7436	0.1529604
0.7438	0.1587525
0.744	0.1602904
0.7442	0.1567831
0.7444	0.1503516
0.7446	0.1425951
0.7448	0.1364628
0.745	0.1287776
0.7452	0.1207012
0.7454	0.1136098
0.7456	0.1048187
0.7458	0.09575273
0.746	0.08424546
0.7462	0.0687827
0.7464	0.05258075
0.7466	0.03539169
0.7468	0.01799442
0.747	0.002361837
0.7472	-0.01245589
0.7474	-0.02647802
0.7476	-0.03896473
0.7478	-0.05023452
0.748	-0.0587525
0.7482	-0.06632851
0.7484	-0.07561549
0.7486	-0.08285031
0.7488	-0.08840162
0.749	-0.09617455
0.7492	-0.1078227
0.7494	-0.1206091
0.7496	-0.1338398
0.7498	-0.1443246
0.75	-0.1531059
0.7502	-0.1591947
0.7504	-0.1669247
0.7506	-0.1753595
0.7508	-0.183286
0.751	-0.1921972
0.7512	-0.2009609
0.7514	-0.2057294
0.7516	-0.2044809
0.7518	-0.1994016
0.752	-0.1954461
0.7522	-0.1929854
0.7524	-0.1905206
0.7526	-0.1874584
0.7528	-0.1851443
0.753	-0.1797452
0.7532	-0.173164
0.7534	-0.1641185
0.7536	-0.1505824
0.7538	-0.1356577
0.754	-0.1199409
0.7542	-0.1051452
0.7544	-0.09126245
0.7546	-0.07775832
0.7548	-0.06498307
0.755	-0.0545359
0.7552	-0.0455072
0.7554	-0.03893023
0.7556	-0.03479914
0.7558	-0.02840076
0.756	-0.0219784
0.7562	-0.01689016
0.7564	-0.0102708
0.7566	-0.00733994
0.7568	-0.004980207
0.757	-0.002465105
0.7572	0.001185192
0.7574	0.005070312
0.7576	0.0073475
0.7578	0.0117945
0.758	0.01708173
0.7582	0.02123111
0.7584	0.02336491
0.7586	0.02563761
0.7588	0.02763955
0.759	0.03189583
0.7592	0.03630871
0.7594	0.03786853
0.7596	0.03746355
0.7598	0.03594888
0.76	0.03556884
0.7602	0.03528425
0.7604	0.03270863
0.7606	0.03320566
0.7608	0.03364646
0.761	0.03274881
0.7612	0.03398855
0.7614	0.03546136
0.7616	0.03671707
0.7618	0.03702164
0.762	0.03384807
0.7622	0.03198291
0.7624	0.0330139
0.7626	0.03502404
0.7628	0.03468636
0.763	0.03423904
0.7632	0.03351174
0.7634	0.03301594
0.7636	0.03372
0.7638	0.03370075
0.764	0.03314262
0.7642	0.03021378
0.7644	0.02870943
0.7646	0.02942984
0.7648	0.03023753
0.765	0.03079889
0.7652	0.03202985
0.7654	0.03333762
0.7656	0.03346835
0.7658	0.03446006
0.766	0.03466872
0.7662	0.03475195
0.7664	0.03323688
0.7666	0.03011495
0.7668	0.02939582
0.767	0.02676087
0.7672	0.02281737
0.7674	0.01969745
0.7676	0.01683109
0.7678	0.01529844
0.768	0.0127969
0.7682	0.01230287
0.7684	0.01091006
0.7686	0.006857954
0.7688	0.005160647
0.769	0.004019489
0.7692	0.003662367
0.7694	0.002045589
0.7696	9.707107e-5
0.7698	0.0007647283
0.77	0.00227165
0.7702	0.001993643
0.7704	0.003205306
0.7706	0.004879753
0.7708	0.006636732
0.771	0.007496628
0.7712	0.008179449
0.7714	0.01099244
0.7716	0.01232828
0.7718	0.01395327
0.772	0.01464198
0.7722	0.01515709
0.7724	0.01641425
0.7726	0.01680175
0.7728	0.01687776
0.773	0.01674478
0.7732	0.01736312
0.7734	0.01689931
0.7736	0.01610745
0.7738	0.0164518
0.774	0.01735388
0.7742	0.01784895
0.7744	0.01898609
0.7746	0.02033201
0.7748	0.02021664
0.775	0.02097452
0.7752	0.02168043
0.7754	0.0211648
0.7756	0.02280369
0.7758	0.02363215
0.776	0.02394139
0.7762	0.02341827
0.7764	0.02329881
0.7766	0.02239583
0.7768	0.02050602
0.777	0.01925262
0.7772	0.01803154
0.7774	0.01671059
0.7776	0.01473398
0.7778	0.0129843
0.778	0.01362049
0.7782	0.01333364
0.7784	0.0132208
0.7786	0.01169566
0.7788	0.01106721
0.779	0.01094081
0.7792	0.01095087
0.7794	0.01079859
0.7796	0.01059324
0.7798	0.009796359
0.78	0.01009502
0.7802	0.008732173
0.7804	0.007642507
0.7806	0.007354104
0.7808	0.006511829
0.781	0.005577333
0.7812	0.005542929
0.7814	0.002754799
0.7816	-0.0007830326
0.7818	-0.001090757
0.782	6.894841e-5
0.7822	-0.002512951
0.7824	-0.003889164
0.7826	-0.004032786
0.7828	-0.005359499
0.783	-0.007843827
0.7832	-0.01040175
0.7834	-0.01282756
0.7836	-0.01550296
0.7838	-0.01762516
0.784	-0.01891943
0.7842	-0.01960204
0.7844	-0.01986181
0.7846	-0.02034912
0.7848	-0.02055104
0.785	-0.02065583
0.7852	-0.021402
0.7854	-0.01919965
0.7856	-0.0174123
0.7858	-0.01698633
0.786	-0.01479452
0.7862	-0.01367045
0.7864	-0.01421497
0.7866	-0.01481272
0.7868	-0.01103114
0.787	-0.00766452
0.7872	-0.004253405
0.7874	-0.001995231
0.7876	-0.0009049053
0.7878	0.001851924
0.788	0.003521004
0.7882	0.005780718
0.7884	0.00930143
0.7886	0.01245232
0.7888	0.01383143
0.789	0.01458826
0.7892	0.0167617
0.7894	0.02160221
0.7896	0.02631526
0.7898	0.02938879
0.79	0.02966256
0.7902	0.0280589
0.7904	0.02559033
0.7906	0.02290275
0.7908	0.01888412
0.791	0.01606054
0.7912	0.01219159
0.7914	0.01024307
0.7916	0.007950484
0.7918	0.004520088
0.792	0.002188978
0.7922	-0.001934511
0.7924	-0.005074577
0.7926	-0.008952321
0.7928	-0.01025411
0.793	-0.01185567
0.7932	-0.01298657
0.7934	-0.01555242
0.7936	-0.01707944
0.7938	-0.01752492
0.794	-0.01774878
0.7942	-0.01658637
0.7944	-0.01673214
0.7946	-0.01824767
0.7948	-0.01777027
0.795	-0.01740452
0.7952	-0.01612392
0.7954	-0.0152811
0.7956	-0.0144293
0.7958	-0.01123321
0.796	-0.007278104
0.7962	-0.004957769
0.7964	-0.004041956
0.7966	-0.004529747
0.7968	-0.003597559
0.797	-0.003253497
0.7972	-0.003406217
0.7974	-0.004634462
0.7976	-0.005828857
0.7978	-0.004650533
0.798	-0.0009627684
0.7982	0.003917026
0.7984	0.0073945
0.7986	0.01048818
0.7988	0.01101497
0.799	0.01166613
0.7992	0.01083015
0.7994	0.009284756
0.7996	0.007439932
0.7998	0.006197908
0.8	0.002324581
0.8002	-0.001082389
0.8004	-0.004884632
0.8006	-0.008455488
0.8008	-0.01257837
0.801	-0.01908465
0.8012	-0.02554613
0.8014	-0.02990958
0.8016	-0.0331355
0.8018	-0.03490542
0.802	-0.03484099
0.8022	-0.03214828
0.8024	-0.03037429
0.8026	-0.03033737
0.8028	-0.0293278
0.803	-0.02768732
0.8032	-0.02465917
0.8034	-0.02181151
0.8036	-0.01913363
0.8038	-0.01664906
0.804	-0.01433232
0.8042	-0.01229352
0.8044	-0.009477945
0.8046	-0.007372226
0.8048	-0.007735991
0.805	-0.006749063
0.8052	-0.007240772
0.8054	-0.008168484
0.8056	-0.009330559
0.8058	-0.01201177
0.806	-0.01460727
0.8062	-0.01787226
0.8064	-0.01811573
0.8066	-0.01825824
0.8068	-0.01688033
0.807	-0.01352323
0.8072	-0.008773117
0.8074	-0.00293338
0.8076	0.003474378
0.8078	0.009040194
0.808	0.01352111
0.8082	0.01783259
0.8084	0.01970421
0.8086	0.01672968
0.8088	0.01326067
0.809	0.008232147
0.8092	0.001870603
0.8094	-0.003773203
0.8096	-0.008671088
0.8098	-0.01196646
0.81	-0.01215436
0.8102	-0.01187979
0.8104	-0.01032675
0.8106	-0.007291305
0.8108	-0.004915536
0.811	-0.002573253
0.8112	-0.0009142064
0.8114	0.0005336792
0.8116	0.003805514
0.8118	0.006125986
0.812	0.007194347
0.8122	0.009343577
0.8124	0.0107355
0.8126	0.009749558
0.8128	0.009451101
0.813	0.008665431
0.8132	0.008072525
0.8134	0.008090133
0.8136	0.008815245
0.8138	0.01148403
0.814	0.01239504
0.8142	0.01274927
0.8144	0.0149893
0.8146	0.0166211
0.8148	0.01638225
0.815	0.01662363
0.8152	0.01742569
0.8154	0.01762632
0.8156	0.01833472
0.8158	0.01958483
0.816	0.02157598
0.8162	0.02351639
0.8164	0.02618326
0.8166	0.02933851
0.8168	0.03403583
0.817	0.03718717
0.8172	0.03923606
0.8174	0.04031304
0.8176	0.04199025
0.8178	0.03982608
0.818	0.03766824
0.8182	0.03448932
0.8184	0.03062958
0.8186	0.02766428
0.8188	0.02486978
0.819	0.02339016
0.8192	0.02159255
0.8194	0.01985607
0.8196	0.01874611
0.8198	0.01888618
0.82	0.0174456
0.8202	0.01582002
0.8204	0.01329688
0.8206	0.0104808
0.8208	0.007631924
0.821	0.003013202
0.8212	0.0002261957
0.8214	-0.002226526
0.8216	-0.005478806
0.8218	-0.006682137
0.822	-0.008383989
0.8222	-0.0100328
0.8224	-0.01064163
0.8226	-0.01250773
0.8228	-0.01489295
0.823	-0.01625145
0.8232	-0.01765774
0.8234	-0.01771013
0.8236	-0.01916651
0.8238	-0.02072261
0.824	-0.02185483
0.8242	-0.02306805
0.8244	-0.02393286
0.8246	-0.02496341
0.8248	-0.02678133
0.825	-0.02790102
0.8252	-0.0275261
0.8254	-0.02635099
0.8256	-0.02653276
0.8258	-0.02564631
0.826	-0.02587467
0.8262	-0.02561563
0.8264	-0.02604179
0.8266	-0.02634327
0.8268	-0.02545627
0.827	-0.02488219
0.8272	-0.02388713
0.8274	-0.02171828
0.8276	-0.01870737
0.8278	-0.01604773
0.828	-0.01517596
0.8282	-0.01223504
0.8284	-0.01042999
0.8286	-0.008934904
0.8288	-0.008395058
0.829	-0.007741034
0.8292	-0.005959667
0.8294	-0.005926152
0.8296	-0.005534027
0.8298	-0.005929917
0.83	-0.006402493
0.8302	-0.006037132
0.8304	-0.006175321
0.8306	-0.005908275
0.8308	-0.004095889
0.831	-0.003358387
0.8312	-0.00344887
0.8314	-0.003673664
0.8316	-0.001705293
0.8318	0.001552583
0.832	0.003630584
0.8322	0.006179253
0.8324	0.007778845
0.8326	0.006899722
0.8328	0.006950755
0.833	0.008295063
0.8332	0.009972507
0.8334	0.01086097
0.8336	0.01141139
0.8338	0.01321776
0.834	0.01369269
0.8342	0.01505756
0.8344	0.01790559
0.8346	0.01895439
0.8348	0.01877328
0.835	0.02019426
0.8352	0.02065538
0.8354	0.01821378
0.8356	0.01794897
0.8358	0.017342
0.836	0.01851379
0.8362	0.02121823
0.8364	0.02033969
0.8366	0.02029905
0.8368	0.02144404
0.837	0.02079812
0.8372	0.02059156
0.8374	0.01925389
0.8376	0.01891728
0.8378	0.01879034
0.838	0.0163998
0.8382	0.01426211
0.8384	0.01310517
0.8386	0.01235271
0.8388	0.01189318
0.839	0.00993511
0.8392	0.00833619
0.8394	0.008747053
0.8396	0.008497542
0.8398	0.006974942
0.84	0.005489237
0.8402	0.006093388
0.8404	0.003134259
0.8406	0.001153482
0.8408	-0.0008378555
0.841	-0.002590583
0.8412	-0.002796659
0.8414	-0.004579807
0.8416	-0.006439995
0.8418	-0.008162137
0.842	-0.008031514
0.8422	-0.007662122
0.8424	-0.009807458
0.8426	-0.01049952
0.8428	-0.01259355
0.843	-0.01260201
0.8432	-0.01286328
0.8434	-0.01438178
0.8436	-0.01717268
0.8438	-0.01868573
0.844	-0.01834633
0.8442	-0.01728433
0.8444	-0.01777213
0.8446	-0.01833755
0.8448	-0.0178894
0.845	-0.0182758
0.8452	-0.01889434
0.8454	-0.01917018
0.8456	-0.01899474
0.8458	-0.01912062
0.846	-0.01854346
0.8462	-0.01990951
0.8464	-0.01965864
0.8466	-0.01992841
0.8468	-0.0194609
0.847	-0.01817419
0.8472	-0.01841286
0.8474	-0.01892718
0.8476	-0.01959971
0.8478	-0.01755008
0.848	-0.01676289
0.8482	-0.01663125
0.8484	-0.01606203
0.8486	-0.01398948
0.8488	-0.01233257
0.849	-0.01157133
0.8492	-0.01206077
0.8494	-0.01156309
0.8496	-0.009388214
0.8498	-0.007367424
0.85	-0.006163003
0.8502	-0.005072867
0.8504	-0.003056096
0.8506	-0.002081207
0.8508	-0.0008942693
0.851	0.0009399117
0.8512	0.001810737
0.8514	0.002659292
0.8516	0.003364621
0.8518	0.003969393
0.852	0.007040121
0.8522	0.008981419
0.8524	0.009004712
0.8526	0.009702042
0.8528	0.01134833
0.853	0.01280146
0.8532	0.01390449
0.8534	0.01300111
0.8536	0.01473183
0.8538	0.01732876
0.854	0.01754527
0.8542	0.01898438
0.8544	0.01966477
0.8546	0.01920789
0.8548	0.01924463
0.855	0.02065427
0.8552	0.02029919
0.8554	0.02054495
0.8556	0.02083964
0.8558	0.0205305
0.856	0.02204942
0.8562	0.02285515
0.8564	0.02279642
0.8566	0.02207134
0.8568	0.02183632
0.857	0.0212093
0.8572	0.020626
0.8574	0.01938961
0.8576	0.01856581
0.8578	0.01909847
0.858	0.01998371
0.8582	0.01931115
0.8584	0.01642186
0.8586	0.01475233
0.8588	0.01351728
0.859	0.0134348
0.8592	0.01522368
0.8594	0.01321471
0.8596	0.01140373
0.8598	0.01117109
0.86	0.009999487
0.8602	0.007956276
0.8604	0.004834101
0.8606	0.005497034
0.8608	0.004166815
0.861	0.002028216
0.8612	0.0003211636
0.8614	-0.001192448
0.8616	-0.002745597
0.8618	-0.003368389
0.862	-0.004370105
0.8622	-0.005453726
0.8624	-0.005305438
0.8626	-0.007695566
0.8628	-0.009469866
0.863	-0.0110564
0.8632	-0.01441177
0.8634	-0.01497485
0.8636	-0.01563147
0.8638	-0.01519778
0.864	-0.0184556
0.8642	-0.01952093
0.8644	-0.01874488
0.8646	-0.01987656
0.8648	-0.0223109
0.865	-0.02469202
0.8652	-0.02394629
0.8654	-0.02399914
0.8656	-0.02549984
0.8658	-0.0245459
0.866	-0.02553581
0.8662	-0.02552388
0.8664	-0.02508784
0.8666	-0.02443343
0.8668	-0.02453339
0.867	-0.02432549
0.8672	-0.02168561
0.8674	-0.01917621
0.8676	-0.01806765
0.8678	-0.01746055
0.868	-0.0155262
0.8682	-0.01432008
0.8684	-0.01246604
0.8686	-0.01301492
0.8688	-0.01257678
0.869	-0.0112217
0.8692	-0.009910606
0.8694	-0.007290727
0.8696	-0.00666468
0.8698	-0.006459585
0.87	-0.005698641
0.8702	-0.00433229
0.8704	-0.003737716
0.8706	-0.001493883
0.8708	7.873033e-5
0.871	0.0009703079
0.8712	0.0009221724
0.8714	0.0006339199
0.8716	0.001498814
0.8718	0.003806583
0.872	0.005292535
0.8722	0.00451688
0.8724	0.006151008
0.8726	0.005946693
0.8728	0.006864225
0.873	0.008694215
0.8732	0.009355204
0.8734	0.01074651
0.8736	0.01007817
0.8738	0.01084996
0.874	0.01181377
0.8742	0.01328362
0.8744	0.01269014
0.8746	0.0128668
0.8748	0.01556791
0.875	0.0167522
0.8752	0.01644346
0.8754	0.01873412
0.8756	0.01863304
0.8758	0.02032031
0.876	0.01998664
0.8762	0.01895644
0.8764	0.01921382
0.8766	0.01989193
0.8768	0.02091807
0.877	0.02120391
0.8772	0.02163679
0.8774	0.02247428
0.8776	0.02317031
0.8778	0.02366187
0.878	0.02345375
0.8782	0.0206967
0.8784	0.01765724
0.8786	0.01618503
0.8788	0.01285692
0.879	0.0112546
0.8792	0.01110451
0.8794	0.01028098
0.8796	0.008669239
0.8798	0.007745981
0.88	0.007861102
0.8802	0.006732318
0.8804	0.005013447
0.8806	0.005268968
0.8808	0.006012389
0.881	0.0049889
0.8812	0.002583673
0.8814	-0.0006261841
0.8816	-0.001712552
0.8818	-0.003748685
0.882	-0.005230713
0.8822	-0.008029039
0.8824	-0.01008632
0.8826	-0.01225684
0.8828	-0.01252589
0.883	-0.01438393
0.8832	-0.01569689
0.8834	-0.01623237
0.8836	-0.01968106
0.8838	-0.0223092
0.884	-0.02333201
0.8842	-0.024351
0.8844	-0.02671484
0.8846	-0.0270109
0.8848	-0.02675165
0.885	-0.0279412
0.8852	-0.02785959
0.8854	-0.02828929
0.8856	-0.02805853
0.8858	-0.0291443
0.886	-0.02957534
0.8862	-0.02927076
0.8864	-0.0294682
0.8866	-0.02727384
0.8868	-0.02463798
0.887	-0.02431281
0.8872	-0.02320403
0.8874	-0.02259169
0.8876	-0.02097989
0.8878	-0.01937149
0.888	-0.01804987
0.8882	-0.01628275
0.8884	-0.01469428
0.8886	-0.01159695
0.8888	-0.01004498
0.889	-0.009423865
0.8892	-0.008424652
0.8894	-0.007415039
0.8896	-0.006782519
0.8898	-0.005979573
0.89	-0.004292604
0.8902	-0.002516053
0.8904	-0.0007403446
0.8906	0.002176591
0.8908	0.00416281
0.891	0.004056085
0.8912	0.005418766
0.8914	0.005822866
0.8916	0.00682955
0.8918	0.006529242
0.892	0.006716691
0.8922	0.007703546
0.8924	0.009872865
0.8926	0.01121014
0.8928	0.01115928
0.893	0.01316616
0.8932	0.01544581
0.8934	0.01637479
0.8936	0.01714555
0.8938	0.0173701
0.894	0.01902968
0.8942	0.02095237
0.8944	0.0219064
0.8946	0.02390654
0.8948	0.02565098
0.895	0.02592626
0.8952	0.02595895
0.8954	0.02618591
0.8956	0.02557152
0.8958	0.02571396
0.896	0.02686232
0.8962	0.02615925
0.8964	0.02560845
0.8966	0.02515519
0.8968	0.02344162
0.897	0.02218417
0.8972	0.02348984
0.8974	0.02305511
0.8976	0.02182775
0.8978	0.02046658
0.898	0.02005472
0.8982	0.01886942
0.8984	0.01652817
0.8986	0.01487869
0.8988	0.01301212
0.899	0.01249783
0.8992	0.01240476
0.8994	0.0100604
0.8996	0.008034966
0.8998	0.008230888
0.9	0.007820147
0.9002	0.00717902
0.9004	0.006016162
0.9006	0.003820451
0.9008	0.003101818
0.901	0.002978931
0.9012	0.0009747415
0.9014	-0.0005716406
0.9016	-0.001105377
0.9018	-0.001485514
0.902	-0.003502929
0.9022	-0.003741181
0.9024	-0.005199967
0.9026	-0.006464907
0.9028	-0.006818773
0.903	-0.01043405
0.9032	-0.01130079
0.9034	-0.01181769
0.9036	-0.01396617
0.9038	-0.01517262
0.904	-0.01580117
0.9042	-0.01572929
0.9044	-0.01619759
0.9046	-0.01657811
0.9048	-0.0169079
0.905	-0.01723675
0.9052	-0.01719259
0.9054	-0.01727432
0.9056	-0.01909027
0.9058	-0.02088787
0.906	-0.02168566
0.9062	-0.02230705
0.9064	-0.02219006
0.9066	-0.02300522
0.9068	-0.02474717
0.907	-0.02553577
0.9072	-0.0245667
0.9074	-0.02550997
0.9076	-0.02636705
0.9078	-0.02769392
0.908	-0.02756848
0.9082	-0.0267162
0.9084	-0.02527901
0.9086	-0.02210103
0.9088	-0.02069988
0.909	-0.01790889
0.9092	-0.01535412
0.9094	-0.013037
0.9096	-0.01156714
0.9098	-0.009961171
0.91	-0.006499985
0.9102	-0.004259026
0.9104	-0.004346307
0.9106	-0.004228828
0.9108	-0.00221261
0.911	-0.001338823
0.9112	0.0003389162
0.9114	0.003143161
0.9116	0.004840347
0.9118	0.004089257
0.912	0.006121289
0.9122	0.009356762
0.9124	0.01220886
0.9126	0.01262129
0.9128	0.0121999
0.913	0.01267858
0.9132	0.01512136
0.9134	0.01771965
0.9136	0.01888454
0.9138	0.02032044
0.914	0.02188029
0.9142	0.02183864
0.9144	0.02179731
0.9146	0.02205209
0.9148	0.0205343
0.915	0.02099708
0.9152	0.0215419
0.9154	0.02240698
0.9156	0.02276797
0.9158	0.02208855
0.916	0.02324159
0.9162	0.02338748
0.9164	0.02493709
0.9166	0.02350532
0.9168	0.02291983
0.917	0.02443049
0.9172	0.02292028
0.9174	0.02276556
0.9176	0.02170222
0.9178	0.0197394
0.918	0.01870022
0.9182	0.01808272
0.9184	0.01617794
0.9186	0.01411829
0.9188	0.01374381
0.919	0.01248244
0.9192	0.009912468
0.9194	0.00694399
0.9196	0.004965377
0.9198	0.002433303
0.92	0.001856979
0.9202	0.002244561
0.9204	0.001468683
0.9206	-0.001013477
0.9208	-0.003518939
0.921	-0.003296976
0.9212	-0.003003549
0.9214	-0.004360823
0.9216	-0.004954693
0.9218	-0.00636649
0.922	-0.007959996
0.9222	-0.008485571
0.9224	-0.009778435
0.9226	-0.01054601
0.9228	-0.01204238
0.923	-0.01366152
0.9232	-0.01455383
0.9234	-0.0166745
0.9236	-0.0186384
0.9238	-0.01731282
0.924	-0.017482
0.9242	-0.01869675
0.9244	-0.01968761
0.9246	-0.01962634
0.9248	-0.01892995
0.925	-0.02054644
0.9252	-0.02021423
0.9254	-0.01962139
0.9256	-0.02093323
0.9258	-0.02144489
0.926	-0.0211285
0.9262	-0.02203481
0.9264	-0.02412711
0.9266	-0.02541952
0.9268	-0.02742807
0.927	-0.02733466
0.9272	-0.02706413
0.9274	-0.02648139
0.9276	-0.02457916
0.9278	-0.02473387
0.928	-0.02435071
0.9282	-0.02174575
0.9284	-0.01922967
0.9286	-0.01713429
0.9288	-0.01438269
0.929	-0.01234029
0.9292	-0.01191455
0.9294	-0.01087825
0.9296	-0.008592913
0.9298	-0.007726161
0.93	-0.006564178
0.9302	-0.005359869
0.9304	-0.004173778
0.9306	-0.002164453
0.9308	0.000801733
0.931	0.005393856
0.9312	0.008780093
0.9314	0.0139294
0.9316	0.0176061
0.9318	0.01980718
0.932	0.02244635
0.9322	0.02431749
0.9324	0.02498357
0.9326	0.02516108
0.9328	0.02638335
0.933	0.02781151
0.9332	0.02704641
0.9334	0.02550219
0.9336	0.0246556
0.9338	0.02444905
0.934	0.02491407
0.9342	0.02434183
0.9344	0.02374821
0.9346	0.02232324
0.9348	0.01794993
0.935	0.01270826
0.9352	0.006958694
0.9354	0.001288269
0.9356	-0.0007361828
0.9358	-0.002066929
0.936	-0.003743262
0.9362	-0.004843612
0.9364	-0.005019124
0.9366	-0.003579719
0.9368	-0.001965514
0.937	-4.143678e-5
0.9372	0.001990458
0.9374	0.002666603
0.9376	0.004301896
0.9378	0.006926527
0.938	0.007713057
0.9382	0.00754324
0.9384	0.00796905
0.9386	0.008874585
0.9388	0.01148033
0.939	0.0125154
0.9392	0.01447711
0.9394	0.01669974
0.9396	0.01550532
0.9398	0.01682492
0.94	0.01559231
0.9402	0.01596619
0.9404	0.01642159
0.9406	0.01502926
0.9408	0.01411456
0.941	0.01320996
0.9412	0.01287271
0.9414	0.01329265
0.9416	0.01345979
0.9418	0.01309365
0.942	0.01325642
0.9422	0.01125055
0.9424	0.009162704
0.9426	0.009110599
0.9428	0.006294053
0.943	0.003323233
0.9432	-0.0005471398
0.9434	-0.004858193
0.9436	-0.008076078
0.9438	-0.01280691
0.944	-0.0173744
0.9442	-0.01932346
0.9444	-0.0194395
0.9446	-0.02113055
0.9448	-0.02369891
0.945	-0.02488514
0.9452	-0.02510422
0.9454	-0.02578645
0.9456	-0.02657484
0.9458	-0.02534937
0.946	-0.02384352
0.9462	-0.02315115
0.9464	-0.02276885
0.9466	-0.02317567
0.9468	-0.0239333
0.947	-0.0234301
0.9472	-0.02358125
0.9474	-0.02305415
0.9476	-0.02434476
0.9478	-0.02423384
0.948	-0.02323631
0.9482	-0.02277369
0.9484	-0.02224982
0.9486	-0.0197793
0.9488	-0.01868314
0.949	-0.01867628
0.9492	-0.01858454
0.9494	-0.01858592
0.9496	-0.01759288
0.9498	-0.01741624
0.95	-0.01618303
0.9502	-0.01436775
0.9504	-0.0138972
0.9506	-0.01311657
0.9508	-0.01003697
0.951	-0.008450911
0.9512	-0.006938808
0.9514	-0.003464762
0.9516	-0.001109497
0.9518	-0.0004406452
0.952	0.0006448655
0.9522	0.003339379
0.9524	0.00588209
0.9526	0.007876705
0.9528	0.009875464
0.953	0.01231059
0.9532	0.01430158
0.9534	0.01391738
0.9536	0.0155977
0.9538	0.01786441
0.954	0.01816603
0.9542	0.01935486
0.9544	0.02023902
0.9546	0.02057034
0.9548	0.02083149
0.955	0.02153289
0.9552	0.02252478
0.9554	0.02445787
0.9556	0.02351735
0.9558	0.02272465
0.956	0.02429801
0.9562	0.02459502
0.9564	0.02451639
0.9566	0.02462657
0.9568	0.02479966
0.957	0.02436158
0.9572	0.02456602
0.9574	0.02465494
0.9576	0.02421662
0.9578	0.02340782
0.958	0.0224841
0.9582	0.02171014
0.9584	0.02158679
0.9586	0.02050644
0.9588	0.01934072
0.959	0.0192207
0.9592	0.01899272
0.9594	0.01778334
0.9596	0.01670718
0.9598	0.01331685
0.96	0.01144232
0.9602	0.009431054
0.9604	0.007773563
0.9606	0.005438261
0.9608	0.00361573
0.961	0.00385944
0.9612	0.00170872
0.9614	-0.001518469
0.9616	-0.003796653
0.9618	-0.003960516
0.962	-0.006958782
0.9622	-0.00931469
0.9624	-0.01169092
0.9626	-0.01368825
0.9628	-0.01539585
0.963	-0.01798951
0.9632	-0.017713
0.9634	-0.01894346
0.9636	-0.02212953
0.9638	-0.02315276
0.964	-0.02246481
0.9642	-0.02422138
0.9644	-0.02424744
0.9646	-0.02481198
0.9648	-0.02510007
0.965	-0.02444288
0.9652	-0.0249315
0.9654	-0.0253568
0.9656	-0.02510553
0.9658	-0.02567312
0.966	-0.0272546
0.9662	-0.02815087
0.9664	-0.03020671
0.9666	-0.03010403
0.9668	-0.02915378
0.967	-0.02879001
0.9672	-0.02864494
0.9674	-0.02651346
0.9676	-0.02229333
0.9678	-0.01977072
0.968	-0.01796993
0.9682	-0.01712405
0.9684	-0.01484146
0.9686	-0.01391711
0.9688	-0.0124614
0.969	-0.009885293
0.9692	-0.01010737
0.9694	-0.0113442
0.9696	-0.01028089
0.9698	-0.008881974
0.97	-0.007951647
0.9702	-0.004957799
0.9704	-0.001815795
0.9706	0.001114574
0.9708	0.00402946
0.971	0.006269254
0.9712	0.007240047
0.9714	0.007415054
0.9716	0.01018059
0.9718	0.01349764
0.972	0.01567113
0.9722	0.01748753
0.9724	0.01940505
0.9726	0.02084923
0.9728	0.02139603
0.973	0.02167537
0.9732	0.02149154
0.9734	0.02127524
0.9736	0.02147206
0.9738	0.01976394
0.974	0.01844581
0.9742	0.01821957
0.9744	0.01949615
0.9746	0.02026482
0.9748	0.02051801
0.975	0.0233585
0.9752	0.02411566
0.9754	0.02431668
0.9756	0.02380715
0.9758	0.02310607
0.976	0.02329
0.9762	0.02201783
0.9764	0.02193704
0.9766	0.02125285
0.9768	0.02078894
0.977	0.01971724
0.9772	0.018388
0.9774	0.01729622
0.9776	0.01692671
0.9778	0.01547425
0.978	0.01438138
0.9782	0.01471021
0.9784	0.01441425
0.9786	0.01286114
0.9788	0.01201831
0.979	0.009850685
0.9792	0.007778476
0.9794	0.005789181
0.9796	0.003851664
0.9798	0.002961191
0.98	0.002232792
0.9802	0.001174285
0.9804	-0.001245058
0.9806	-0.003027248
0.9808	-0.003951484
0.981	-0.005234193
0.9812	-0.006584233
0.9814	-0.006447705
0.9816	-0.008229733
0.9818	-0.01037947
0.982	-0.009834417
0.9822	-0.009062437
0.9824	-0.009462784
0.9826	-0.01067065
0.9828	-0.01043691
0.983	-0.009764529
0.9832	-0.01012434
0.9834	-0.01165425
0.9836	-0.01282086
0.9838	-0.01319857
0.984	-0.01451423
0.9842	-0.01697864
0.9844	-0.01940299
0.9846	-0.01870404
0.9848	-0.02006031
0.985	-0.02113427
0.9852	-0.02193615
0.9854	-0.02204694
0.9856	-0.02110797
0.9858	-0.02099781
0.986	-0.02083804
0.9862	-0.02160495
0.9864	-0.02190148
0.9866	-0.02041485
0.9868	-0.02078392
0.987	-0.02107045
0.9872	-0.01956288
0.9874	-0.01896662
0.9876	-0.01821732
0.9878	-0.01802801
0.988	-0.01745538
0.9882	-0.01544719
0.9884	-0.0137363
0.9886	-0.01171975
0.9888	-0.009004124
0.989	-0.005443427
0.9892	-0.003707935
0.9894	-0.003929891
0.9896	-0.004788937
0.9898	-0.003695581
0.99	-0.00210495
0.9902	-0.0002097387
0.9904	0.0007343946
0.9906	0.001975882
0.9908	0.003225212
0.991	0.003796445
0.9912	0.003517321
0.9914	0.003475874
0.9916	0.003204423
0.9918	0.00400801
0.992	0.00675219
0.9922	0.00971928
0.9924	0.01124409
0.9926	0.01135335
0.9928	0.0117655
0.993	0.01369823
0.9932	0.01385223
0.9934	0.01425583
0.9936	0.01549067
0.9938	0.0161594
0.994	0.01608573
0.9942	0.01583868
0.9944	0.01683038
0.9946	0.01761454
0.9948	0.01892343
0.995	0.01865858
0.9952	0.01922946
0.9954	0.02214135
0.9956	0.02159238
0.9958	0.01966717
0.996	0.02113035
0.9962	0.02175113
0.9964	0.02260107
0.9966	0.0218367
0.9968	0.02037348
0.997	0.01920596
0.9972	0.01847665
0.9974	0.01731911
0.9976	0.01535311
0.9978	0.01375591
0.998	0.01422827
0.9982	0.01416648
0.9984	0.0120367
0.9986	0.01238355
0.9988	0.01232275
0.999	0.01191459
0.9992	0.01146246
0.9994	0.01120095
0.9996	0.01068457
0.9998	0.01068045
1	0.00986989
1.0002	0.006972886
1.0004	0.005078914
1.0006	0.00460726
1.0008	0.00421468
1.001	0.002879613
1.0012	0.001689724
1.0014	0.0005316244
1.0016	-0.002332459
1.0018	-0.003165503
1.002	-0.004632652
1.0022	-0.0052195
1.0024	-0.006886867
1.0026	-0.007948819
1.0028	-0.008751302
1.003	-0.009901798
1.0032	-0.01019731
1.0034	-0.01333749
1.0036	-0.01395839
1.0038	-0.01448006
1.004	-0.01638308
1.0042	-0.01765529
1.0044	-0.01909818
1.0046	-0.01928221
1.0048	-0.02024694
1.005	-0.02094407
1.0052	-0.02087001
1.0054	-0.01986523
1.0056	-0.02106352
1.0058	-0.02119711
1.006	-0.021109
1.0062	-0.02121711
1.0064	-0.02249563
1.0066	-0.023446
1.0068	-0.02336434
1.007	-0.02328568
1.0072	-0.02426216
1.0074	-0.0242828
1.0076	-0.02397712
1.0078	-0.0247673
1.008	-0.02217546
1.0082	-0.01884742
1.0084	-0.01639782
1.0086	-0.01496536
1.0088	-0.01580855
1.009	-0.01546686
1.0092	-0.01319961
1.0094	-0.01353768
1.0096	-0.01287355
1.0098	-0.01224044
1.01	-0.01041202
1.0102	-0.008619426
1.0104	-0.007288746
1.0106	-0.004675636
1.0108	-0.003725752
1.011	-0.001357548
1.0112	-0.0007113437
1.0114	0.0003027234
1.0116	0.002869861
1.0118	0.00354386
1.012	0.005716537
1.0122	0.008733016
1.0124	0.01103054
1.0126	0.01389018
1.0128	0.01565135
1.013	0.01553689
1.0132	0.01588924
1.0134	0.0166866
1.0136	0.01835443
1.0138	0.01943227
1.014	0.02036528
1.0142	0.02109077
1.0144	0.02065091
1.0146	0.01946796
1.0148	0.01832581
1.015	0.0193119
1.0152	0.01938936
1.0154	0.01955723
1.0156	0.01978062
1.0158	0.01855734
1.016	0.01922079
1.0162	0.01901177
1.0164	0.01913711
1.0166	0.01985178
1.0168	0.02071162
1.017	0.02236619
1.0172	0.02170485
1.0174	0.02070476
1.0176	0.02066697
1.0178	0.02137371
1.018	0.02094397
1.0182	0.01789252
1.0184	0.01598369
1.0186	0.01431423
1.0188	0.0123862
1.019	0.01154359
1.0192	0.01117667
1.0194	0.01171981
1.0196	0.009561014
1.0198	0.006164041
1.02	0.006554851
1.0202	0.007008993
1.0204	0.006988924
1.0206	0.005422218
1.0208	0.002313087
1.021	0.0006550068
1.0212	-4.926527e-5
1.0214	-7.924604e-5
1.0216	-0.002253191
1.0218	-0.004116979
1.022	-0.006854872
1.0222	-0.009180789
1.0224	-0.008518899
1.0226	-0.009269687
1.0228	-0.01123532
1.023	-0.0136164
1.0232	-0.01415615
1.0234	-0.01573377
1.0236	-0.01697372
1.0238	-0.01807118
1.024	-0.01860771
1.0242	-0.01879113
1.0244	-0.01917013
1.0246	-0.01928043
1.0248	-0.02077547
1.025	-0.02067808
1.0252	-0.01914115
1.0254	-0.01978835
1.0256	-0.02166254
1.0258	-0.02266463
1.026	-0.02229726
1.0262	-0.02267239
1.0264	-0.02297941
1.0266	-0.02222963
1.0268	-0.02194289
1.027	-0.02204258
1.0272	-0.02237662
1.0274	-0.0212164
1.0276	-0.01996175
1.0278	-0.01888507
1.028	-0.0189942
1.0282	-0.01720929
1.0284	-0.01489203
1.0286	-0.01431301
1.0288	-0.01391087
1.029	-0.01270083
1.0292	-0.01166465
1.0294	-0.01030146
1.0296	-0.007909275
1.0298	-0.006957315
1.03	-0.007145232
1.0302	-0.004707546
1.0304	-0.002117945
1.0306	-0.001795916
1.0308	-6.412544e-5
1.031	0.002452196
1.0312	0.004174564
1.0314	0.005263675
1.0316	0.005578938
1.0318	0.007437102
1.032	0.009762313
1.0322	0.008834489
1.0324	0.008104964
1.0326	0.009923663
1.0328	0.0132971
1.033	0.0160126
1.0332	0.01779676
1.0334	0.01795151
1.0336	0.01825686
1.0338	0.01900824
1.034	0.01893275
1.0342	0.01922809
1.0344	0.01936284
1.0346	0.01908573
1.0348	0.01936536
1.035	0.02030346
1.0352	0.0203695
1.0354	0.02042401
1.0356	0.02025074
1.0358	0.01988762
1.036	0.02077869
1.0362	0.02116288
1.0364	0.02096078
1.0366	0.01919817
1.0368	0.01767365
1.037	0.01788358
1.0372	0.01842406
1.0374	0.01738712
1.0376	0.01519088
1.0378	0.0137694
1.038	0.0141041
1.0382	0.01519486
1.0384	0.01550255
1.0386	0.0144486
1.0388	0.01253269
1.039	0.01067671
1.0392	0.009377165
1.0394	0.009300792
1.0396	0.007491081
1.0398	0.005612677
1.04	0.005029746
1.0402	0.004973475
1.0404	0.003523002
1.0406	0.003838764
1.0408	0.002016394
1.041	0.000673448
1.0412	-0.0007578496
1.0414	-0.001419677
1.0416	-0.004322576
1.0418	-0.006119398
1.042	-0.004739478
1.0422	-0.004538559
1.0424	-0.006062836
1.0426	-0.008032086
1.0428	-0.009686306
1.043	-0.01279931
1.0432	-0.01331868
1.0434	-0.01415607
1.0436	-0.01559059
1.0438	-0.01753651
1.044	-0.01716819
1.0442	-0.01664377
1.0444	-0.01829848
1.0446	-0.01915228
1.0448	-0.02107905
1.045	-0.02046716
1.0452	-0.0204077
1.0454	-0.02189887
1.0456	-0.0241385
1.0458	-0.02449809
1.046	-0.02394017
1.0462	-0.02514575
1.0464	-0.02480908
1.0466	-0.02281667
1.0468	-0.02328275
1.047	-0.02278355
1.0472	-0.02275184
1.0474	-0.0230731
1.0476	-0.02132608
1.0478	-0.02056376
1.048	-0.02023164
1.0482	-0.01732847
1.0484	-0.01556515
1.0486	-0.01334434
1.0488	-0.01247344
1.049	-0.01162306
1.0492	-0.009869701
1.0494	-0.009006847
1.0496	-0.00778604
1.0498	-0.006963253
1.05	-0.006475061
1.0502	-0.007424179
1.0504	-0.006764154
1.0506	-0.004744954
1.0508	-0.002416204
1.051	-0.001060357
1.0512	0.002158272
1.0514	0.003273815
1.0516	0.004179896
1.0518	0.006308817
1.052	0.007390974
1.0522	0.009189208
1.0524	0.01078323
1.0526	0.01228287
1.0528	0.01288524
1.053	0.01483162
1.0532	0.01767015
1.0534	0.01995623
1.0536	0.01905537
1.0538	0.0196988
1.054	0.02061367
1.0542	0.02007549
1.0544	0.02057148
1.0546	0.02064714
1.0548	0.02116914
1.055	0.02039798
1.0552	0.01948775
1.0554	0.01716562
1.0556	0.01661311
1.0558	0.01796946
1.056	0.01722019
1.0562	0.01750148
1.0564	0.01704468
1.0566	0.01684493
1.0568	0.01754151
1.057	0.01575953
1.0572	0.01533137
1.0574	0.01530234
1.0576	0.01631409
1.0578	0.01760533
1.058	0.01745342
1.0582	0.01539531
1.0584	0.01322239
1.0586	0.01318412
1.0588	0.01257944
1.059	0.01269341
1.0592	0.01262537
1.0594	0.01190816
1.0596	0.01093473
1.0598	0.01105934
1.06	0.01246941
1.0602	0.01031792
1.0604	0.008577758
1.0606	0.006250117
1.0608	0.003853487
1.061	0.001798481
1.0612	0.0002170192
1.0614	4.639817e-5
1.0616	-0.002781339
1.0618	-0.005327729
1.062	-0.007424155
1.0622	-0.006130239
1.0624	-0.006712625
1.0626	-0.008699269
1.0628	-0.01119989
1.063	-0.01265862
1.0632	-0.01406126
1.0634	-0.01789371
1.0636	-0.02076016
1.0638	-0.02130237
1.064	-0.02171718
1.0642	-0.0225232
1.0644	-0.02078199
1.0646	-0.0209649
1.0648	-0.02408242
1.065	-0.0254509
1.0652	-0.02395941
1.0654	-0.02446881
1.0656	-0.02467066
1.0658	-0.02478714
1.066	-0.0241848
1.0662	-0.02549845
1.0664	-0.0245426
1.0666	-0.02315033
1.0668	-0.02225919
1.067	-0.02207938
1.0672	-0.02150706
1.0674	-0.02067348
1.0676	-0.02108152
1.0678	-0.01978926
1.068	-0.01790006
1.0682	-0.01516094
1.0684	-0.01176976
1.0686	-0.01130287
1.0688	-0.01031355
1.069	-0.008615645
1.0692	-0.007754509
1.0694	-0.008688855
1.0696	-0.007598412
1.0698	-0.005396702
1.07	-0.005925297
1.0702	-0.004316668
1.0704	-0.003054306
1.0706	-0.001091505
1.0708	0.001413607
1.071	0.003035442
1.0712	0.007214543
1.0714	0.009028489
1.0716	0.0113388
1.0718	0.01377978
1.072	0.0146142
1.0722	0.01510381
1.0724	0.01653416
1.0726	0.01613994
1.0728	0.01609068
1.073	0.01616846
1.0732	0.01649233
1.0734	0.01616124
1.0736	0.01654343
1.0738	0.01626298
1.074	0.01564907
1.0742	0.01739034
1.0744	0.01812139
1.0746	0.0181077
1.0748	0.01757476
1.075	0.01798838
1.0752	0.01821885
1.0754	0.01890493
1.0756	0.02048147
1.0758	0.02137808
1.076	0.02196555
1.0762	0.02109974
1.0764	0.02085918
1.0766	0.02138498
1.0768	0.02120929
1.077	0.02111215
1.0772	0.02134019
1.0774	0.02067047
1.0776	0.01933433
1.0778	0.0183269
1.078	0.01773108
1.0782	0.01713666
1.0784	0.01715408
1.0786	0.01727903
1.0788	0.01623631
1.079	0.01473027
1.0792	0.01301196
1.0794	0.01205677
1.0796	0.01212153
1.0798	0.01099405
1.08	0.008798269
1.0802	0.006412874
1.0804	0.006340423
1.0806	0.004176938
1.0808	0.002445122
1.081	0.002115509
1.0812	7.97204e-6
1.0814	-0.002437693
1.0816	-0.003838233
1.0818	-0.005932539
1.082	-0.009187361
1.0822	-0.01196858
1.0824	-0.0146767
1.0826	-0.01469236
1.0828	-0.01490998
1.083	-0.01656377
1.0832	-0.01807455
1.0834	-0.01921111
1.0836	-0.01893114
1.0838	-0.02067812
1.084	-0.02350019
1.0842	-0.02457059
1.0844	-0.02600132
1.0846	-0.02571067
1.0848	-0.02448583
1.085	-0.0242588
1.0852	-0.02508167
1.0854	-0.02427953
1.0856	-0.02492251
1.0858	-0.02507178
1.086	-0.02519202
1.0862	-0.02402516
1.0864	-0.02597122
1.0866	-0.02497688
1.0868	-0.02152241
1.087	-0.02151921
1.0872	-0.02223543
1.0874	-0.02275944
1.0876	-0.02101457
1.0878	-0.01916055
1.088	-0.01786925
1.0882	-0.01727992
1.0884	-0.0159816
1.0886	-0.01514948
1.0888	-0.01419919
1.089	-0.01309269
1.0892	-0.01372355
1.0894	-0.01421022
1.0896	-0.01010706
1.0898	-0.008218053
1.09	-0.006599266
1.0902	-0.004820435
1.0904	-0.00285567
1.0906	-0.0008474675
1.0908	0.0001551214
1.091	-0.001092632
1.0912	0.000499494
1.0914	0.002504937
1.0916	0.00514433
1.0918	0.007497774
1.092	0.008634815
1.0922	0.009187092
1.0924	0.01067282
1.0926	0.01152607
1.0928	0.01209293
1.093	0.01473283
1.0932	0.01546752
1.0934	0.01563073
1.0936	0.01706713
1.0938	0.01793224
1.094	0.0185723
1.0942	0.01803884
1.0944	0.01815559
1.0946	0.019646
1.0948	0.02055404
1.095	0.02056338
1.0952	0.0202839
1.0954	0.02132067
1.0956	0.02152896
1.0958	0.02235192
1.096	0.02318512
1.0962	0.02219879
1.0964	0.02404637
1.0966	0.02590248
1.0968	0.02365472
1.097	0.02391937
1.0972	0.0240746
1.0974	0.02299796
1.0976	0.02183951
1.0978	0.02022218
1.098	0.01930174
1.0982	0.01687659
1.0984	0.01405216
1.0986	0.01285824
1.0988	0.01237913
1.099	0.01234386
1.0992	0.01228775
1.0994	0.01054351
1.0996	0.01004235
1.0998	0.008447281
1.1	0.007451994
1.1002	0.006635932
1.1004	0.004786036
1.1006	0.003386714
1.1008	0.003028567
1.101	0.002144564
1.1012	-0.0005158687
1.1014	-0.003084807
1.1016	-0.005178567
1.1018	-0.005531552
1.102	-0.005799662
1.1022	-0.006531453
1.1024	-0.00904055
1.1026	-0.009805546
1.1028	-0.01122634
1.103	-0.01262577
1.1032	-0.01212745
1.1034	-0.01410978
1.1036	-0.01489217
1.1038	-0.01444977
1.104	-0.01397515
1.1042	-0.0157203
1.1044	-0.01746005
1.1046	-0.01691371
1.1048	-0.0187209
1.105	-0.02086662
1.1052	-0.02123578
1.1054	-0.02067359
1.1056	-0.01978822
1.1058	-0.0197389
1.106	-0.01962601
1.1062	-0.01906993
1.1064	-0.01945303
1.1066	-0.01992827
1.1068	-0.0193245
1.107	-0.01927914
1.1072	-0.01821799
1.1074	-0.01802189
1.1076	-0.01841404
1.1078	-0.01716108
1.108	-0.01579101
1.1082	-0.01572687
1.1084	-0.01563389
1.1086	-0.01478163
1.1088	-0.01420837
1.109	-0.01332002
1.1092	-0.01231862
1.1094	-0.01215873
1.1096	-0.008923483
1.1098	-0.007400285
1.11	-0.006617045
1.1102	-0.006614795
1.1104	-0.005044032
1.1106	-0.00387461
1.1108	-0.002816725
1.111	-0.002339249
1.1112	0.0002536825
1.1114	0.001308246
1.1116	0.002848926
1.1118	0.004853343
1.112	0.006759442
1.1122	0.008529994
1.1124	0.009315378
1.1126	0.01176839
1.1128	0.01243593
1.113	0.01430941
1.1132	0.01776781
1.1134	0.01736558
1.1136	0.01685559
1.1138	0.0175378
1.114	0.01823762
1.1142	0.01844916
1.1144	0.01839849
1.1146	0.01845884
1.1148	0.01868982
1.115	0.01722788
1.1152	0.01648128
1.1154	0.01657588
1.1156	0.01566427
1.1158	0.01632921
1.116	0.0176865
1.1162	0.01857694
1.1164	0.02037628
1.1166	0.0205321
1.1168	0.02045214
1.117	0.02168709
1.1172	0.02147003
1.1174	0.02078379
1.1176	0.02085434
1.1178	0.01922645
1.118	0.01799854
1.1182	0.01635474
1.1184	0.01493464
1.1186	0.01541014
1.1188	0.01419225
1.119	0.01406596
1.1192	0.01376945
1.1194	0.01228812
1.1196	0.01048147
1.1198	0.009075326
1.12	0.006192034
1.1202	0.003940285
1.1204	0.001250798
1.1206	0.00112541
1.1208	-0.0002505442
1.121	-0.003527703
1.1212	-0.004163003
1.1214	-0.005126111
1.1216	-0.007264271
1.1218	-0.008019414
1.122	-0.008421012
1.1222	-0.009386706
1.1224	-0.01079721
1.1226	-0.01157971
1.1228	-0.01200503
1.123	-0.01179699
1.1232	-0.01351018
1.1234	-0.01557979
1.1236	-0.01615638
1.1238	-0.01622642
1.124	-0.01648465
1.1242	-0.0189578
1.1244	-0.02196222
1.1246	-0.02249128
1.1248	-0.02002994
1.125	-0.01948283
1.1252	-0.01946083
1.1254	-0.01955563
1.1256	-0.01891803
1.1258	-0.01857213
1.126	-0.01817731
1.1262	-0.01918163
1.1264	-0.02009988
1.1266	-0.01964033
1.1268	-0.02149147
1.127	-0.02237074
1.1272	-0.02296945
1.1274	-0.02224514
1.1276	-0.02272996
1.1278	-0.02248227
1.128	-0.02088178
1.1282	-0.0187102
1.1284	-0.01818215
1.1286	-0.01736115
1.1288	-0.01519953
1.129	-0.01265022
1.1292	-0.01048503
1.1294	-0.009870882
1.1296	-0.009164908
1.1298	-0.008089627
1.13	-0.00764914
1.1302	-0.006739737
1.1304	-0.005049534
1.1306	-0.002622076
1.1308	-0.001208321
1.131	-0.001073629
1.1312	-0.0003758979
1.1314	0.002705238
1.1316	0.004752815
1.1318	0.005297167
1.132	0.008362313
1.1322	0.01043072
1.1324	0.01180203
1.1326	0.01240604
1.1328	0.01234273
1.133	0.01423433
1.1332	0.01528708
1.1334	0.01668823
1.1336	0.01794963
1.1338	0.01896571
1.134	0.01831887
1.1342	0.01824295
1.1344	0.01837545
1.1346	0.01930383
1.1348	0.01922411
1.135	0.01903802
1.1352	0.02006207
1.1354	0.01955968
1.1356	0.01936188
1.1358	0.01767862
1.136	0.01775068
1.1362	0.01878841
1.1364	0.01859491
1.1366	0.01774276
1.1368	0.01767858
1.137	0.01887801
1.1372	0.02016081
1.1374	0.02012874
1.1376	0.02096134
1.1378	0.02070255
1.138	0.01918623
1.1382	0.01825629
1.1384	0.01678759
1.1386	0.01488137
1.1388	0.01482228
1.139	0.01438649
1.1392	0.01337758
1.1394	0.0133076
1.1396	0.01161708
1.1398	0.01182552
1.14	0.009550119
1.1402	0.007212595
1.1404	0.005218284
1.1406	0.002810256
1.1408	0.0009066679
1.141	-0.000370121
1.1412	0.0001230808
1.1414	-0.001276382
1.1416	-0.003362301
1.1418	-0.004425774
1.142	-0.007161078
1.1422	-0.009916523
1.1424	-0.01169803
1.1426	-0.01369546
1.1428	-0.0146525
1.143	-0.0166603
1.1432	-0.01973212
1.1434	-0.02074692
1.1436	-0.02094521
1.1438	-0.0207968
1.144	-0.0211164
1.1442	-0.02158248
1.1444	-0.02134026
1.1446	-0.02179107
1.1448	-0.02237799
1.145	-0.02229322
1.1452	-0.01955004
1.1454	-0.01867648
1.1456	-0.0177764
1.1458	-0.01599325
1.146	-0.01541732
1.1462	-0.01714731
1.1464	-0.01737221
1.1466	-0.01615952
1.1468	-0.0164431
1.147	-0.0179897
1.1472	-0.01871292
1.1474	-0.01835344
1.1476	-0.01809763
1.1478	-0.01847152
1.148	-0.017581
1.1482	-0.01599194
1.1484	-0.01328326
1.1486	-0.01162466
1.1488	-0.01244019
1.149	-0.01064895
1.1492	-0.008151724
1.1494	-0.007542355
1.1496	-0.007239009
1.1498	-0.004425925
1.15	-0.0007319172
1.1502	0.0009056458
1.1504	0.00257792
1.1506	0.003306439
1.1508	0.006951648
1.151	0.008814728
1.1512	0.008785338
1.1514	0.01039469
1.1516	0.009459036
1.1518	0.009969964
1.152	0.009937055
1.1522	0.008220415
1.1524	0.007280035
1.1526	0.007297567
1.1528	0.006592728
1.153	0.007281586
1.1532	0.008144872
1.1534	0.009567296
1.1536	0.01092918
1.1538	0.01191213
1.154	0.01294792
1.1542	0.01245659
1.1544	0.01528031
1.1546	0.01764294
1.1548	0.01752202
1.155	0.01682465
1.1552	0.01654194
1.1554	0.01688372
1.1556	0.01708904
1.1558	0.0169641
1.156	0.01770674
1.1562	0.01841939
1.1564	0.01864072
1.1566	0.02036504
1.1568	0.02165459
1.157	0.02112888
1.1572	0.02064076
1.1574	0.02030046
1.1576	0.01874849
1.1578	0.01732006
1.158	0.01615282
1.1582	0.01508886
1.1584	0.01399725
1.1586	0.01414782
1.1588	0.01301476
1.159	0.01002332
1.1592	0.008852977
1.1594	0.007663387
1.1596	0.00824301
1.1598	0.01025509
1.16	0.009599805
1.1602	0.009485052
1.1604	0.008645209
1.1606	0.006296306
1.1608	0.005096984
1.161	0.003220794
1.1612	0.002207595
1.1614	-0.0006090152
1.1616	-0.004837553
1.1618	-0.008210042
1.162	-0.01009313
1.1622	-0.011515
1.1624	-0.01388773
1.1626	-0.014978
1.1628	-0.01700088
1.163	-0.0182981
1.1632	-0.01929826
1.1634	-0.01986912
1.1636	-0.01990267
1.1638	-0.02005582
1.164	-0.02070082
1.1642	-0.02075871
1.1644	-0.02094845
1.1646	-0.0201604
1.1648	-0.01788498
1.165	-0.01883309
1.1652	-0.01919736
1.1654	-0.01993435
1.1656	-0.01959442
1.1658	-0.01943505
1.166	-0.02012577
1.1662	-0.01964286
1.1664	-0.01895155
1.1666	-0.01817185
1.1668	-0.01835762
1.167	-0.01889964
1.1672	-0.01761367
1.1674	-0.01727229
1.1676	-0.0172165
1.1678	-0.0165205
1.168	-0.01381989
1.1682	-0.01238042
1.1684	-0.01345371
1.1686	-0.01329657
1.1688	-0.01162762
1.169	-0.009228509
1.1692	-0.00821974
1.1694	-0.007251085
1.1696	-0.006289744
1.1698	-0.004279386
1.17	-0.0041669
1.1702	-0.004382531
1.1704	-0.004041755
1.1706	-0.001857234
1.1708	-0.0007529549
1.171	7.852354e-6
1.1712	0.001501104
1.1714	0.003249003
1.1716	0.005521889
1.1718	0.006543239
1.172	0.006839158
1.1722	0.007848517
1.1724	0.008828779
1.1726	0.009791267
1.1728	0.01111193
1.173	0.01242101
1.1732	0.0129712
1.1734	0.01411779
1.1736	0.01322869
1.1738	0.01346721
1.174	0.01538676
1.1742	0.01600329
1.1744	0.01781917
1.1746	0.01887754
1.1748	0.01882727
1.175	0.01918759
1.1752	0.01907322
1.1754	0.01970402
1.1756	0.0203196
1.1758	0.01913645
1.176	0.01950676
1.1762	0.02053121
1.1764	0.02059818
1.1766	0.02086139
1.1768	0.02009926
1.177	0.01996857
1.1772	0.0185742
1.1774	0.01885559
1.1776	0.01957184
1.1778	0.01817007
1.178	0.01465939
1.1782	0.01367307
1.1784	0.01161052
1.1786	0.009365349
1.1788	0.007086259
1.179	0.005386399
1.1792	0.005096363
1.1794	0.004682038
1.1796	0.005276709
1.1798	0.006088051
1.18	0.006470358
1.1802	0.005643805
1.1804	0.005338923
1.1806	0.00468396
1.1808	0.002498544
1.181	-0.0004406335
1.1812	-0.002142861
1.1814	-0.00279893
1.1816	-0.005358489
1.1818	-0.007070644
1.182	-0.008791161
1.1822	-0.009758167
1.1824	-0.0122322
1.1826	-0.01396372
1.1828	-0.0132952
1.183	-0.01372023
1.1832	-0.0150568
1.1834	-0.01630737
1.1836	-0.01699303
1.1838	-0.01983085
1.184	-0.02055301
1.1842	-0.01939603
1.1844	-0.01970779
1.1846	-0.02044099
1.1848	-0.0219902
1.185	-0.02253749
1.1852	-0.02190986
1.1854	-0.02002824
1.1856	-0.0204359
1.1858	-0.02135309
1.186	-0.0219482
1.1862	-0.0226967
1.1864	-0.02330515
1.1866	-0.02291034
1.1868	-0.02112038
1.187	-0.02094037
1.1872	-0.02126137
1.1874	-0.01965499
1.1876	-0.01648584
1.1878	-0.01586526
1.188	-0.01495379
1.1882	-0.01318054
1.1884	-0.01322193
1.1886	-0.01143055
1.1888	-0.01081246
1.189	-0.01108081
1.1892	-0.009531489
1.1894	-0.008538328
1.1896	-0.00803263
1.1898	-0.007767396
1.19	-0.005850048
1.1902	-0.00430637
1.1904	-0.003696988
1.1906	-0.0008145781
1.1908	0.00127438
1.191	0.001671395
1.1912	0.002950585
1.1914	0.004059136
1.1916	0.004790963
1.1918	0.006117755
1.192	0.00646044
1.1922	0.009414573
1.1924	0.01024835
1.1926	0.01159006
1.1928	0.01352895
1.193	0.01549543
1.1932	0.01594094
1.1934	0.01676316
1.1936	0.01776524
1.1938	0.0190779
1.194	0.0207171
1.1942	0.02093868
1.1944	0.02187631
1.1946	0.021066
1.1948	0.02061768
1.195	0.02144268
1.1952	0.02173612
1.1954	0.02088273
1.1956	0.02072694
1.1958	0.02085552
1.196	0.02336883
1.1962	0.02448886
1.1964	0.02388603
1.1966	0.02241904
1.1968	0.02177079
1.197	0.02220292
1.1972	0.02313727
1.1974	0.02209323
1.1976	0.01936675
1.1978	0.01892891
1.198	0.01867632
1.1982	0.01661615
1.1984	0.01457856
1.1986	0.01542351
1.1988	0.01531394
1.199	0.01457658
1.1992	0.01127956
1.1994	0.01032462
1.1996	0.008710707
1.1998	0.006302553
1.2	0.005849332
1.2002	0.004209076
1.2004	0.003498952
1.2006	0.001326418
1.2008	0.0009010521
1.201	-0.0003311554
1.2012	-0.001277794
1.2014	-0.003029859
1.2016	-0.004773955
1.2018	-0.006263199
1.202	-0.008014439
1.2022	-0.01006259
1.2024	-0.01350534
1.2026	-0.01502878
1.2028	-0.01534567
1.203	-0.01663451
1.2032	-0.01777774
1.2034	-0.02062894
1.2036	-0.02204509
1.2038	-0.02024361
1.204	-0.01991582
1.2042	-0.02048928
1.2044	-0.02186025
1.2046	-0.02187322
1.2048	-0.02222425
1.205	-0.02207314
1.2052	-0.02295978
1.2054	-0.02369468
1.2056	-0.02373032
1.2058	-0.02397788
1.206	-0.02342016
1.2062	-0.02171178
1.2064	-0.02187492
1.2066	-0.02239744
1.2068	-0.02262446
1.207	-0.02370515
1.2072	-0.02117489
1.2074	-0.01923257
1.2076	-0.01814374
1.2078	-0.01762095
1.208	-0.01576236
1.2082	-0.01499168
1.2084	-0.01449629
1.2086	-0.01281972
1.2088	-0.0110099
1.209	-0.00909207
1.2092	-0.008179151
1.2094	-0.007704861
1.2096	-0.006883586
1.2098	-0.005629085
1.21	-0.004580323
1.2102	-0.003389777
1.2104	-0.001983521
1.2106	0.0003560067
1.2108	0.001491435
1.211	0.001682472
1.2112	0.002193299
1.2114	0.003890782
1.2116	0.004809783
1.2118	0.006290823
1.212	0.007337187
1.2122	0.009180354
1.2124	0.0115743
1.2126	0.01308903
1.2128	0.01295707
1.213	0.01370096
1.2132	0.01526764
1.2134	0.0159201
1.2136	0.01590825
1.2138	0.01600711
1.214	0.01658428
1.2142	0.01670928
1.2144	0.01591046
1.2146	0.01851333
1.2148	0.02058411
1.215	0.02151408
1.2152	0.02274521
1.2154	0.02237928
1.2156	0.02102492
1.2158	0.02024355
1.216	0.02189014
1.2162	0.02298465
1.2164	0.02166521
1.2166	0.01955517
1.2168	0.01875927
1.217	0.01827645
1.2172	0.01807051
1.2174	0.0180361
1.2176	0.01723231
1.2178	0.01834573
1.218	0.01507474
1.2182	0.01268941
1.2184	0.01169901
1.2186	0.01038706
1.2188	0.01053915
1.219	0.009936764
1.2192	0.009786609
1.2194	0.009966407
1.2196	0.007322344
1.2198	0.007701695
1.22	0.007737221
1.2202	0.006128144
1.2204	0.004534096
1.2206	0.004471022
1.2208	0.003354149
1.221	0.001907287
1.2212	-0.0005422564
1.2214	-0.003974956
1.2216	-0.006136276
1.2218	-0.007207746
1.222	-0.008008961
1.2222	-0.01033282
1.2224	-0.01119654
1.2226	-0.0110363
1.2228	-0.01106269
1.223	-0.008729618
1.2232	-0.008007132
1.2234	-0.008354242
1.2236	-0.0076052
1.2238	-0.006715817
1.224	-0.005948831
1.2242	-0.008022154
1.2244	-0.01026052
1.2246	-0.01048337
1.2248	-0.01101789
1.225	-0.01341806
1.2252	-0.01490636
1.2254	-0.01638201
1.2256	-0.01742219
1.2258	-0.01946022
1.226	-0.02084244
1.2262	-0.02163597
1.2264	-0.02270909
1.2266	-0.02210495
1.2268	-0.02314619
1.227	-0.02434479
1.2272	-0.02405516
1.2274	-0.02280905
1.2276	-0.02366007
1.2278	-0.02323617
1.228	-0.02070461
1.2282	-0.01932295
1.2284	-0.0182742
1.2286	-0.01740758
1.2288	-0.01617249
1.229	-0.01413146
1.2292	-0.0123118
1.2294	-0.01003977
1.2296	-0.008336351
1.2298	-0.007925201
1.23	-0.006683309
1.2302	-0.006431597
1.2304	-0.005546065
1.2306	-0.004147426
1.2308	-0.003446547
1.231	-0.002175312
1.2312	-0.0001833193
1.2314	0.001984744
1.2316	0.004976641
1.2318	0.008121138
1.232	0.009352329
1.2322	0.00837505
1.2324	0.008680921
1.2326	0.01022576
1.2328	0.01010308
1.233	0.009668848
1.2332	0.01193001
1.2334	0.01471023
1.2336	0.01523543
1.2338	0.01462584
1.234	0.01367867
1.2342	0.01344266
1.2344	0.01432498
1.2346	0.01505822
1.2348	0.01556172
1.235	0.01671116
1.2352	0.01877519
1.2354	0.02022498
1.2356	0.01928137
1.2358	0.02064766
1.236	0.02217117
1.2362	0.02196258
1.2364	0.02199785
1.2366	0.02054989
1.2368	0.02017484
1.237	0.01915728
1.2372	0.01657323
1.2374	0.0156539
1.2376	0.01581137
1.2378	0.01710348
1.238	0.01624605
1.2382	0.01532206
1.2384	0.01489967
1.2386	0.01548993
1.2388	0.01407741
1.239	0.01206081
1.2392	0.01097068
1.2394	0.009080621
1.2396	0.008651526
1.2398	0.008449301
1.24	0.005592756
1.2402	0.00372413
1.2404	0.001045893
1.2406	-0.001637966
1.2408	-0.002727337
1.241	-0.00456814
1.2412	-0.004349495
1.2414	-0.00563754
1.2416	-0.00732953
1.2418	-0.009122572
1.242	-0.01118193
1.2422	-0.01294238
1.2424	-0.01396108
1.2426	-0.01414136
1.2428	-0.01467981
1.243	-0.01664781
1.2432	-0.01728665
1.2434	-0.02017749
1.2436	-0.02475229
1.2438	-0.02957055
1.244	-0.03407435
1.2442	-0.03666331
1.2444	-0.03661464
1.2446	-0.03500848
1.2448	-0.03374124
1.245	-0.03368592
1.2452	-0.03141498
1.2454	-0.03077371
1.2456	-0.0319826
1.2458	-0.03098879
1.246	-0.02809414
1.2462	-0.0245951
1.2464	-0.02183712
1.2466	-0.0185114
1.2468	-0.01586456
1.247	-0.01404598
1.2472	-0.01151783
1.2474	-0.00960069
1.2476	-0.008397919
1.2478	-0.007883249
1.248	-0.006161851
1.2482	-0.00340168
1.2484	-0.0008377046
1.2486	0.001348289
1.2488	0.002232833
1.249	0.002095404
1.2492	0.00293745
1.2494	0.004117514
1.2496	0.006930865
1.2498	0.008852167
1.25	0.01191831
1.2502	0.01542227
1.2504	0.01683471
1.2506	0.01572829
1.2508	0.01631317
1.251	0.01642807
1.2512	0.01621835
1.2514	0.01652417
1.2516	0.01649374
1.2518	0.01522363
1.252	0.01493148
1.2522	0.01380481
1.2524	0.01228876
1.2526	0.01167185
1.2528	0.01076239
1.253	0.0121225
1.2532	0.01216717
1.2534	0.01224663
1.2536	0.01097678
1.2538	0.01047412
1.254	0.01170122
1.2542	0.01161191
1.2544	0.01376687
1.2546	0.01467678
1.2548	0.0145415
1.255	0.01571565
1.2552	0.01565665
1.2554	0.01532522
1.2556	0.01638671
1.2558	0.01703381
1.256	0.01572545
1.2562	0.01824025
1.2564	0.01700749
1.2566	0.01596788
1.2568	0.01702204
1.257	0.01884343
1.2572	0.01991216
1.2574	0.02005378
1.2576	0.018853
1.2578	0.01766979
1.258	0.01709425
1.2582	0.01489474
1.2584	0.01422335
1.2586	0.01350045
1.2588	0.01329839
1.259	0.01171961
1.2592	0.01012332
1.2594	0.008934035
1.2596	0.00653762
1.2598	0.00553418
1.26	0.003971269
1.2602	0.002479112
1.2604	0.0009316126
1.2606	-9.78212e-5
1.2608	-0.0002088121
1.261	0.0009255458
1.2612	0.000617878
1.2614	-0.0002507668
1.2616	-0.001267287
1.2618	-0.00219188
1.262	-0.00316922
1.2622	-0.003889678
1.2624	-0.005128099
1.2626	-0.006102866
1.2628	-0.008299181
1.263	-0.01029486
1.2632	-0.01212301
1.2634	-0.01232474
1.2636	-0.01321275
1.2638	-0.01323034
1.264	-0.01153018
1.2642	-0.01197263
1.2644	-0.01424144
1.2646	-0.01685643
1.2648	-0.01905268
1.265	-0.01903957
1.2652	-0.01812244
1.2654	-0.01895696
1.2656	-0.01921392
1.2658	-0.02064333
1.266	-0.02238419
1.2662	-0.02449762
1.2664	-0.023666
1.2666	-0.02184574
1.2668	-0.02192864
1.267	-0.02267255
1.2672	-0.02307451
1.2674	-0.02228026
1.2676	-0.02286222
1.2678	-0.02298578
1.268	-0.02215709
1.2682	-0.02071275
1.2684	-0.01959708
1.2686	-0.0182186
1.2688	-0.01701601
1.269	-0.01635813
1.2692	-0.01386121
1.2694	-0.01315552
1.2696	-0.01213599
1.2698	-0.01101279
1.27	-0.009220315
1.2702	-0.00694605
1.2704	-0.005869729
1.2706	-0.003764255
1.2708	-0.002282595
1.271	-0.001308162
1.2712	-0.002603807
1.2714	-0.001794255
1.2716	0.001182822
1.2718	0.002811252
1.272	0.003490979
1.2722	0.003309662
1.2724	0.004240249
1.2726	0.006222751
1.2728	0.00796027
1.273	0.0084448
1.2732	0.009606504
1.2734	0.01164328
1.2736	0.01253661
1.2738	0.01404735
1.274	0.01729766
1.2742	0.01812975
1.2744	0.01865098
1.2746	0.01946783
1.2748	0.02025119
1.275	0.01968411
1.2752	0.01962505
1.2754	0.02066472
1.2756	0.02234765
1.2758	0.02240223
1.276	0.02203004
1.2762	0.02312336
1.2764	0.02279012
1.2766	0.02364331
1.2768	0.02368104
1.277	0.02322657
1.2772	0.02191692
1.2774	0.02158202
1.2776	0.02203913
1.2778	0.02126221
1.278	0.02041387
1.2782	0.01884564
1.2784	0.01708218
1.2786	0.01532156
1.2788	0.01346011
1.279	0.0129966
1.2792	0.01168465
1.2794	0.01110326
1.2796	0.01023137
1.2798	0.008732368
1.28	0.006477884
1.2802	0.006418386
1.2804	0.003889484
1.2806	-0.0002736891
1.2808	-0.0006942429
1.281	-0.001661679
1.2812	-0.003503422
1.2814	-0.005963457
1.2816	-0.007738323
1.2818	-0.009282769
1.282	-0.009514702
1.2822	-0.008770227
1.2824	-0.009865172
1.2826	-0.01093421
1.2828	-0.01215189
1.283	-0.01535649
1.2832	-0.01590523
1.2834	-0.01716534
1.2836	-0.01898236
1.2838	-0.01913989
1.284	-0.01924881
1.2842	-0.01854586
1.2844	-0.01856165
1.2846	-0.01870331
1.2848	-0.01860423
1.285	-0.01822966
1.2852	-0.01923082
1.2854	-0.01983046
1.2856	-0.02038702
1.2858	-0.0205552
1.286	-0.02141693
1.2862	-0.02142854
1.2864	-0.02044641
1.2866	-0.02013828
1.2868	-0.02045767
1.287	-0.02148911
1.2872	-0.02130014
1.2874	-0.02043905
1.2876	-0.01834278
1.2878	-0.01779057
1.288	-0.01696745
1.2882	-0.01594453
1.2884	-0.01525577
1.2886	-0.01469376
1.2888	-0.01572239
1.289	-0.01447217
1.2892	-0.01067494
1.2894	-0.007995706
1.2896	-0.005574889
1.2898	-0.003698578
1.29	-0.002679203
1.2902	-0.001453014
1.2904	0.0001627649
1.2906	0.001040771
1.2908	0.001549282
1.291	0.003853937
1.2912	0.005129237
1.2914	0.005357196
1.2916	0.006729507
1.2918	0.008834506
1.292	0.0107673
1.2922	0.01311092
1.2924	0.01500292
1.2926	0.01447928
1.2928	0.01538246
1.293	0.01660857
1.2932	0.01698064
1.2934	0.01816978
1.2936	0.01821997
1.2938	0.01923993
1.294	0.02099932
1.2942	0.01980726
1.2944	0.01767024
1.2946	0.01833378
1.2948	0.01914679
1.295	0.01916896
1.2952	0.01899619
1.2954	0.01970706
1.2956	0.0197978
1.2958	0.01744985
1.296	0.0182556
1.2962	0.02059093
1.2964	0.02013223
1.2966	0.01965211
1.2968	0.01984279
1.297	0.01855341
1.2972	0.01643201
1.2974	0.01494983
1.2976	0.01486171
1.2978	0.01481578
1.298	0.01395786
1.2982	0.01315793
