Source File Name:	Scan
Signal:	Time - Ref1 Voltage - Samples

Time	Time Signal
[ s ]	[ V ]
0	0.02277251
0.0002	0.02010882
0.0004	0.01865912
0.0006	0.01758623
0.0008	0.01627667
0.001	0.01298263
0.0012	0.01122655
0.0014	0.009361555
0.0016	0.006640065
0.0018	0.003374538
0.002	-0.0005172457
0.0022	-0.004011936
0.0024	-0.008163796
0.0026	-0.01186539
0.0028	-0.01479846
0.003	-0.01799566
0.0032	-0.02155576
0.0034	-0.02253806
0.0036	-0.02483182
0.0038	-0.02568045
0.004	-0.02604777
0.0042	-0.02749987
0.0044	-0.02870165
0.0046	-0.02898387
0.0048	-0.02962968
0.005	-0.03120316
0.0052	-0.03172776
0.0054	-0.0324276
0.0056	-0.0333561
0.0058	-0.03428975
0.006	-0.03277127
0.0062	-0.03308498
0.0064	-0.03395059
0.0066	-0.03442952
0.0068	-0.03672749
0.007	-0.03681649
0.0072	-0.03706532
0.0074	-0.0382152
0.0076	-0.03745496
0.0078	-0.03608465
0.008	-0.03563838
0.0082	-0.0335997
0.0084	-0.03242508
0.0086	-0.03175377
0.0088	-0.03061757
0.009	-0.02902319
0.0092	-0.02730926
0.0094	-0.02576593
0.0096	-0.02212537
0.0098	-0.01830705
0.01	-0.01646942
0.0102	-0.01534031
0.0104	-0.01350277
0.0106	-0.01166367
0.0108	-0.009947918
0.011	-0.007271524
0.0112	-0.006039509
0.0114	-0.005138753
0.0116	-0.003164537
0.0118	-1.573132e-6
0.012	0.00186345
0.0122	0.003920541
0.0124	0.00695688
0.0126	0.009397637
0.0128	0.01128661
0.013	0.01348421
0.0132	0.01531893
0.0134	0.01759524
0.0136	0.01916914
0.0138	0.02146656
0.014	0.02341491
0.0142	0.02503855
0.0144	0.02670054
0.0146	0.02877787
0.0148	0.03059435
0.015	0.0301483
0.0152	0.03080913
0.0154	0.03199362
0.0156	0.03318212
0.0158	0.03448321
0.016	0.03624848
0.0162	0.03712024
0.0164	0.03755649
0.0166	0.03749983
0.0168	0.03630536
0.017	0.03731844
0.0172	0.03944933
0.0174	0.03923983
0.0176	0.03778849
0.0178	0.03646122
0.018	0.03713094
0.0182	0.03558258
0.0184	0.03373853
0.0186	0.03131822
0.0188	0.0298006
0.019	0.02767898
0.0192	0.02463697
0.0194	0.02386564
0.0196	0.02290427
0.0198	0.02194088
0.02	0.02041282
0.0202	0.01842566
0.0204	0.01527497
0.0206	0.01303451
0.0208	0.01162475
0.021	0.009364272
0.0212	0.007149815
0.0214	0.006238973
0.0216	0.004144288
0.0218	0.00148673
0.022	-0.0006538715
0.0222	-0.003024837
0.0224	-0.003927942
0.0226	-0.005213886
0.0228	-0.007543871
0.023	-0.009966028
0.0232	-0.01321771
0.0234	-0.01621892
0.0236	-0.01902412
0.0238	-0.02217225
0.024	-0.02367153
0.0242	-0.0246989
0.0244	-0.02714484
0.0246	-0.02834628
0.0248	-0.0288406
0.025	-0.03005731
0.0252	-0.03057639
0.0254	-0.0325625
0.0256	-0.03280619
0.0258	-0.03221234
0.026	-0.0345574
0.0262	-0.03396987
0.0264	-0.03623108
0.0266	-0.03795987
0.0268	-0.03797052
0.027	-0.03684543
0.0272	-0.03595375
0.0274	-0.03506725
0.0276	-0.03536724
0.0278	-0.03547481
0.028	-0.0356461
0.0282	-0.03496087
0.0284	-0.03309476
0.0286	-0.03258671
0.0288	-0.03200281
0.029	-0.03074261
0.0292	-0.02914722
0.0294	-0.02641055
0.0296	-0.02362594
0.0298	-0.02057035
0.03	-0.018734
0.0302	-0.01797682
0.0304	-0.01621062
0.0306	-0.01249637
0.0308	-0.01085677
0.031	-0.01045696
0.0312	-0.009754884
0.0314	-0.009519115
0.0316	-0.008549103
0.0318	-0.005355109
0.032	-0.002120108
0.0322	0.0005119445
0.0324	0.004298632
0.0326	0.008477166
0.0328	0.01076363
0.033	0.01222941
0.0332	0.0156922
0.0334	0.01864094
0.0336	0.01917314
0.0338	0.02020318
0.034	0.02215981
0.0342	0.02255836
0.0344	0.02358951
0.0346	0.02626364
0.0348	0.02952115
0.035	0.03129931
0.0352	0.03102897
0.0354	0.0314183
0.0356	0.03242667
0.0358	0.03339565
0.036	0.03338358
0.0362	0.03249878
0.0364	0.03142129
0.0366	0.03155397
0.0368	0.03105465
0.037	0.03182311
0.0372	0.03376013
0.0374	0.03568062
0.0376	0.03456013
0.0378	0.03390071
0.038	0.0351187
0.0382	0.03453693
0.0384	0.03188864
0.0386	0.02970018
0.0388	0.03033429
0.039	0.02920417
0.0392	0.02637016
0.0394	0.02396128
0.0396	0.02187586
0.0398	0.01971558
0.04	0.0178272
0.0402	0.01751355
0.0404	0.01595191
0.0406	0.01456303
0.0408	0.01331161
0.041	0.01119918
0.0412	0.009540333
0.0414	0.007071114
0.0416	0.004537075
0.0418	0.002075007
0.042	0.0003471356
0.0422	-0.002351693
0.0424	-0.003890433
0.0426	-0.006718534
0.0428	-0.008441321
0.043	-0.01076334
0.0432	-0.01378291
0.0434	-0.01690646
0.0436	-0.02000645
0.0438	-0.02111875
0.044	-0.02244211
0.0442	-0.02438316
0.0444	-0.02730064
0.0446	-0.02926538
0.0448	-0.03047007
0.045	-0.03162152
0.0452	-0.03258752
0.0454	-0.03349299
0.0456	-0.03368782
0.0458	-0.0332768
0.046	-0.03333936
0.0462	-0.03313881
0.0464	-0.03438774
0.0466	-0.03537479
0.0468	-0.03573697
0.047	-0.03684888
0.0472	-0.03603752
0.0474	-0.03673002
0.0476	-0.03735777
0.0478	-0.03803727
0.048	-0.03716698
0.0482	-0.03430897
0.0484	-0.03336403
0.0486	-0.03235824
0.0488	-0.03110361
0.049	-0.0291946
0.0492	-0.02863448
0.0494	-0.02716354
0.0496	-0.02535266
0.0498	-0.02348348
0.05	-0.02183246
0.0502	-0.01848041
0.0504	-0.01341403
0.0506	-0.01264538
0.0508	-0.01153972
0.051	-0.01016384
0.0512	-0.006699258
0.0514	-0.004265512
0.0516	-0.002572425
0.0518	0.0001775546
0.052	0.002028987
0.0522	0.005302784
0.0524	0.008012754
0.0526	0.009229638
0.0528	0.01095354
0.053	0.01382419
0.0532	0.01552633
0.0534	0.01777737
0.0536	0.01979435
0.0538	0.02110771
0.054	0.02162049
0.0542	0.02245213
0.0544	0.02387196
0.0546	0.02559831
0.0548	0.02708506
0.055	0.02761323
0.0552	0.02949194
0.0554	0.0307486
0.0556	0.03209674
0.0558	0.03240732
0.056	0.03283737
0.0562	0.03259792
0.0564	0.03469142
0.0566	0.03653817
0.0568	0.03573574
0.057	0.03621187
0.0572	0.03626495
0.0574	0.03795951
0.0576	0.03829708
0.0578	0.0379469
0.058	0.03949267
0.0582	0.03761355
0.0584	0.03650863
0.0586	0.03542398
0.0588	0.03452112
0.059	0.03377286
0.0592	0.0310645
0.0594	0.02827251
0.0596	0.02781285
0.0598	0.02433917
0.06	0.02379521
0.0602	0.02277502
0.0604	0.01945861
0.0606	0.01654112
0.0608	0.01405283
0.061	0.012891
0.0612	0.01270733
0.0614	0.01137949
0.0616	0.009105515
0.0618	0.005803076
0.062	0.003162107
0.0622	0.0001255183
0.0624	-0.001842673
0.0626	-0.005011695
0.0628	-0.006921905
0.063	-0.008189769
0.0632	-0.0114528
0.0634	-0.01455227
0.0636	-0.01640089
0.0638	-0.01958297
0.064	-0.02296601
0.0642	-0.02497246
0.0644	-0.02726364
0.0646	-0.02706429
0.0648	-0.02698211
0.065	-0.0286868
0.0652	-0.03034861
0.0654	-0.03329177
0.0656	-0.0347107
0.0658	-0.03545051
0.066	-0.03521557
0.0662	-0.03480693
0.0664	-0.03437383
0.0666	-0.03436829
0.0668	-0.03526228
0.067	-0.03784306
0.0672	-0.03748871
0.0674	-0.03602128
0.0676	-0.03716497
0.0678	-0.03718277
0.068	-0.0365734
0.0682	-0.03604919
0.0684	-0.03581999
0.0686	-0.0325923
0.0688	-0.03057918
0.069	-0.02856462
0.0692	-0.02720611
0.0694	-0.02503584
0.0696	-0.02321559
0.0698	-0.02112826
0.07	-0.01893875
0.0702	-0.01675134
0.0704	-0.01580559
0.0706	-0.01587578
0.0708	-0.01527885
0.071	-0.01317896
0.0712	-0.01023459
0.0714	-0.007991789
0.0716	-0.005478096
0.0718	-0.002638881
0.072	-0.000792731
0.0722	0.0006007227
0.0724	0.003316808
0.0726	0.006746916
0.0728	0.008778748
0.073	0.01074353
0.0732	0.01406449
0.0734	0.01704163
0.0736	0.01996848
0.0738	0.02255591
0.074	0.02386671
0.0742	0.02559544
0.0744	0.02808558
0.0746	0.02924351
0.0748	0.03217037
0.075	0.03490776
0.0752	0.0350655
0.0754	0.03596003
0.0756	0.03525774
0.0758	0.03485161
0.076	0.0357696
0.0762	0.03652449
0.0764	0.0365647
0.0766	0.03528188
0.0768	0.03459536
0.077	0.03492451
0.0772	0.0340387
0.0774	0.03475073
0.0776	0.03614939
0.0778	0.03619207
0.078	0.03531849
0.0782	0.03314809
0.0784	0.03076619
0.0786	0.02971822
0.0788	0.02738554
0.079	0.02569707
0.0792	0.02471237
0.0794	0.02365863
0.0796	0.02301785
0.0798	0.02183059
0.08	0.01992641
0.0802	0.01701799
0.0804	0.01327384
0.0806	0.01239464
0.0808	0.01096001
0.081	0.008863324
0.0812	0.008153063
0.0814	0.005384199
0.0816	0.003420614
0.0818	0.001432253
0.082	-0.001234168
0.0822	-0.004554795
0.0824	-0.007653905
0.0826	-0.01114479
0.0828	-0.01398002
0.083	-0.01571549
0.0832	-0.01748712
0.0834	-0.02021267
0.0836	-0.02476765
0.0838	-0.02651106
0.084	-0.02642928
0.0842	-0.02731592
0.0844	-0.02802746
0.0846	-0.03031281
0.0848	-0.03118976
0.085	-0.03209424
0.0852	-0.03145509
0.0854	-0.03152297
0.0856	-0.03389534
0.0858	-0.03485294
0.086	-0.03550214
0.0862	-0.03536062
0.0864	-0.0368592
0.0866	-0.0370731
0.0868	-0.03650446
0.087	-0.03623779
0.0872	-0.03665356
0.0874	-0.03692377
0.0876	-0.03791587
0.0878	-0.03848187
0.088	-0.03635791
0.0882	-0.03466906
0.0884	-0.03384434
0.0886	-0.03429422
0.0888	-0.03300871
0.089	-0.03082027
0.0892	-0.02933464
0.0894	-0.02950393
0.0896	-0.02707665
0.0898	-0.0224486
0.09	-0.01925133
0.0902	-0.01623862
0.0904	-0.01387074
0.0906	-0.01326331
0.0908	-0.01247146
0.091	-0.009976705
0.0912	-0.00836804
0.0914	-0.005102074
0.0916	-0.002840388
0.0918	-0.0001730894
0.092	0.003252
0.0922	0.005250621
0.0924	0.006921384
0.0926	0.008783449
0.0928	0.01082174
0.093	0.01234781
0.0932	0.01444459
0.0934	0.01640925
0.0936	0.01910064
0.0938	0.02326409
0.094	0.02576153
0.0942	0.02694354
0.0944	0.02819032
0.0946	0.02988985
0.0948	0.03106536
0.095	0.03258596
0.0952	0.03365228
0.0954	0.03298805
0.0956	0.03418285
0.0958	0.03517548
0.096	0.0352857
0.0962	0.03794106
0.0964	0.0384944
0.0966	0.03772936
0.0968	0.03895225
0.097	0.03930035
0.0972	0.03922139
0.0974	0.03713275
0.0976	0.03523212
0.0978	0.03520567
0.098	0.03497693
0.0982	0.03284853
0.0984	0.0317641
0.0986	0.03062066
0.0988	0.02913657
0.099	0.02651517
0.0992	0.025032
0.0994	0.02463799
0.0996	0.02245828
0.0998	0.01920997
0.1	0.01596155
0.1002	0.01382016
0.1004	0.01353261
0.1006	0.01182735
0.1008	0.009365504
0.101	0.008295067
0.1012	0.006066643
0.1014	0.00627588
0.1016	0.005805708
0.1018	0.003802649
0.102	0.0006518301
0.1022	-0.002080991
0.1024	-0.00474576
0.1026	-0.008367863
0.1028	-0.009759392
0.103	-0.01124573
0.1032	-0.01370606
0.1034	-0.01527142
0.1036	-0.01660813
0.1038	-0.01897607
0.104	-0.02232927
0.1042	-0.0247933
0.1044	-0.02640235
0.1046	-0.02826143
0.1048	-0.02955469
0.105	-0.03188028
0.1052	-0.03446214
0.1054	-0.03412786
0.1056	-0.03378131
0.1058	-0.03378533
0.106	-0.0324565
0.1062	-0.03287283
0.1064	-0.03420168
0.1066	-0.03469866
0.1068	-0.03497675
0.107	-0.03578529
0.1072	-0.03463303
0.1074	-0.03417949
0.1076	-0.03406706
0.1078	-0.03309613
0.108	-0.03256799
0.1082	-0.03268366
0.1084	-0.03226916
0.1086	-0.03178092
0.1088	-0.03214497
0.109	-0.03165691
0.1092	-0.02894409
0.1094	-0.02690721
0.1096	-0.02564426
0.1098	-0.02347524
0.11	-0.01966091
0.1102	-0.0177241
0.1104	-0.01719776
0.1106	-0.01625081
0.1108	-0.01465695
0.111	-0.01229076
0.1112	-0.00891176
0.1114	-0.006059341
0.1116	-0.003235767
0.1118	-0.001152099
0.112	0.001413704
0.1122	0.004688527
0.1124	0.007313072
0.1126	0.01018496
0.1128	0.01295829
0.113	0.01326359
0.1132	0.01528661
0.1134	0.01811821
0.1136	0.02163257
0.1138	0.02600221
0.114	0.02733039
0.1142	0.02896839
0.1144	0.03083616
0.1146	0.0317779
0.1148	0.03250025
0.115	0.03430776
0.1152	0.03575819
0.1154	0.03579022
0.1156	0.03415261
0.1158	0.03395902
0.116	0.03492988
0.1162	0.03550272
0.1164	0.03498099
0.1166	0.03678113
0.1168	0.03799013
0.117	0.03668758
0.1172	0.03682401
0.1174	0.03707384
0.1176	0.035813
0.1178	0.03603494
0.118	0.03391557
0.1182	0.03196976
0.1184	0.03041793
0.1186	0.03019939
0.1188	0.02889884
0.119	0.02563748
0.1192	0.02295827
0.1194	0.02108045
0.1196	0.01822536
0.1198	0.01619562
0.12	0.01530052
0.1202	0.01440781
0.1204	0.01313735
0.1206	0.0114151
0.1208	0.00857704
0.121	0.007467975
0.1212	0.005643613
0.1214	0.002695003
0.1216	-0.0004652443
0.1218	-0.002823939
0.122	-0.007834609
0.1222	-0.01078251
0.1224	-0.01194831
0.1226	-0.01308623
0.1228	-0.01485283
0.123	-0.01762321
0.1232	-0.02066021
0.1234	-0.0214728
0.1236	-0.02250159
0.1238	-0.02490946
0.124	-0.02586327
0.1242	-0.02585643
0.1244	-0.02736647
0.1246	-0.02895674
0.1248	-0.0296724
0.125	-0.03109415
0.1252	-0.03344094
0.1254	-0.03317287
0.1256	-0.03332716
0.1258	-0.03363403
0.126	-0.03277523
0.1262	-0.03311097
0.1264	-0.03291937
0.1266	-0.03177962
0.1268	-0.0317366
0.127	-0.03182029
0.1272	-0.03215988
0.1274	-0.0331558
0.1276	-0.03279417
0.1278	-0.03161335
0.128	-0.03375022
0.1282	-0.03326625
0.1284	-0.03268449
0.1286	-0.03097167
0.1288	-0.02857998
0.129	-0.02754802
0.1292	-0.02570718
0.1294	-0.02309915
0.1296	-0.02218833
0.1298	-0.01964325
0.13	-0.01606823
0.1302	-0.01277463
0.1304	-0.01093819
0.1306	-0.01078215
0.1308	-0.00901843
0.131	-0.006570049
0.1312	-0.004831307
0.1314	-0.002456653
0.1316	-0.001372343
0.1318	-0.0002145801
0.132	0.001799839
0.1322	0.002888223
0.1324	0.003640014
0.1326	0.005877326
0.1328	0.009556541
0.133	0.01131061
0.1332	0.0141219
0.1334	0.01605315
0.1336	0.01741639
0.1338	0.0215443
0.134	0.02352534
0.1342	0.02408286
0.1344	0.02414168
0.1346	0.0255166
0.1348	0.02770486
0.135	0.02833843
0.1352	0.02963818
0.1354	0.03145443
0.1356	0.03228702
0.1358	0.03450814
0.136	0.03693537
0.1362	0.03727064
0.1364	0.03599409
0.1366	0.03609949
0.1368	0.03685289
0.137	0.03551954
0.1372	0.03462515
0.1374	0.03493974
0.1376	0.03547635
0.1378	0.03514454
0.138	0.03352385
0.1382	0.03314816
0.1384	0.03279869
0.1386	0.03114149
0.1388	0.02997411
0.139	0.02911167
0.1392	0.02647979
0.1394	0.02468438
0.1396	0.02457245
0.1398	0.02283072
0.14	0.02028672
0.1402	0.01799541
0.1404	0.01615512
0.1406	0.01398279
0.1408	0.01302944
0.141	0.01157738
0.1412	0.01038972
0.1414	0.009788551
0.1416	0.007133478
0.1418	0.00255015
0.142	-0.0001909322
0.1422	-0.002063053
0.1424	-0.005329884
0.1426	-0.009732874
0.1428	-0.01207367
0.143	-0.01324378
0.1432	-0.01563704
0.1434	-0.01879224
0.1436	-0.02121532
0.1438	-0.02358101
0.144	-0.02505412
0.1442	-0.02529969
0.1444	-0.02775099
0.1446	-0.03019782
0.1448	-0.02911947
0.145	-0.02933729
0.1452	-0.03047645
0.1454	-0.03159799
0.1456	-0.03260347
0.1458	-0.03383786
0.146	-0.03493795
0.1462	-0.0342267
0.1464	-0.03371479
0.1466	-0.0341569
0.1468	-0.03516071
0.147	-0.03578039
0.1472	-0.03676407
0.1474	-0.03608828
0.1476	-0.0352886
0.1478	-0.03462943
0.148	-0.0341721
0.1482	-0.03400453
0.1484	-0.03193004
0.1486	-0.03018858
0.1488	-0.02845627
0.149	-0.02617964
0.1492	-0.02496801
0.1494	-0.0225123
0.1496	-0.02082034
0.1498	-0.01899948
0.15	-0.01670123
0.1502	-0.01485555
0.1504	-0.01371455
0.1506	-0.01168291
0.1508	-0.009558025
0.151	-0.007165215
0.1512	-0.005558407
0.1514	-0.004046146
0.1516	-0.002097139
0.1518	0.0008602148
0.152	0.003954108
0.1522	0.005780391
0.1524	0.007161491
0.1526	0.009451889
0.1528	0.01046264
0.153	0.01235867
0.1532	0.01469023
0.1534	0.01727433
0.1536	0.0194321
0.1538	0.0202329
0.154	0.0216041
0.1542	0.02292568
0.1544	0.02541359
0.1546	0.02729367
0.1548	0.025833
0.155	0.02584291
0.1552	0.02707626
0.1554	0.02850024
0.1556	0.03083835
0.1558	0.03202404
0.156	0.03314569
0.1562	0.03554003
0.1564	0.03708839
0.1566	0.03521036
0.1568	0.03349136
0.157	0.03238419
0.1572	0.03121425
0.1574	0.03148573
0.1576	0.0325302
0.1578	0.03407074
0.158	0.03432108
0.1582	0.0322982
0.1584	0.02994115
0.1586	0.03086356
0.1588	0.0295628
0.159	0.02861909
0.1592	0.02780003
0.1594	0.02679694
0.1596	0.02505764
0.1598	0.02276454
0.16	0.02258584
0.1602	0.02058213
0.1604	0.01684517
0.1606	0.01242945
0.1608	0.009585957
0.161	0.007460937
0.1612	0.006254169
0.1614	0.005594137
0.1616	0.00252854
0.1618	-0.0002318746
0.162	-0.001184411
0.1622	-0.002141374
0.1624	-0.004650717
0.1626	-0.006168199
0.1628	-0.008323726
0.163	-0.01098727
0.1632	-0.0137526
0.1634	-0.01571631
0.1636	-0.01880907
0.1638	-0.02152466
0.164	-0.02225477
0.1642	-0.02337245
0.1644	-0.02502325
0.1646	-0.02707572
0.1648	-0.0277223
0.165	-0.02804423
0.1652	-0.02874382
0.1654	-0.0296269
0.1656	-0.03091228
0.1658	-0.03107175
0.166	-0.03051778
0.1662	-0.03029351
0.1664	-0.03183901
0.1666	-0.03343676
0.1668	-0.03461429
0.167	-0.0340365
0.1672	-0.03440988
0.1674	-0.0339999
0.1676	-0.03241627
0.1678	-0.03173092
0.168	-0.03150746
0.1682	-0.02943463
0.1684	-0.02760606
0.1686	-0.0264642
0.1688	-0.02502996
0.169	-0.0251436
0.1692	-0.02391329
0.1694	-0.02231007
0.1696	-0.01992977
0.1698	-0.01840757
0.17	-0.01835144
0.1702	-0.01661466
0.1704	-0.01435536
0.1706	-0.01279941
0.1708	-0.01039814
0.171	-0.009141861
0.1712	-0.006485895
0.1714	-0.004320528
0.1716	-0.001976154
0.1718	0.0009563633
0.172	0.002419289
0.1722	0.005078238
0.1724	0.006739211
0.1726	0.008107749
0.1728	0.01146274
0.173	0.01419545
0.1732	0.01440928
0.1734	0.01610383
0.1736	0.01805309
0.1738	0.02031846
0.174	0.02174818
0.1742	0.02305791
0.1744	0.02573933
0.1746	0.02674587
0.1748	0.02788869
0.175	0.0279122
0.1752	0.02728921
0.1754	0.02915545
0.1756	0.0305693
0.1758	0.03197727
0.176	0.03304783
0.1762	0.0325405
0.1764	0.03260044
0.1766	0.03204429
0.1768	0.03307828
0.177	0.03272907
0.1772	0.03276418
0.1774	0.03295245
0.1776	0.0315047
0.1778	0.03016929
0.178	0.02905426
0.1782	0.0274686
0.1784	0.02736199
0.1786	0.02705262
0.1788	0.02487966
0.179	0.02472965
0.1792	0.02556278
0.1794	0.02430951
0.1796	0.02290739
0.1798	0.02124759
0.18	0.01943097
0.1802	0.01808938
0.1804	0.01642981
0.1806	0.0146522
0.1808	0.01254851
0.181	0.01097027
0.1812	0.008573405
0.1814	0.006388738
0.1816	0.003105571
0.1818	0.001637363
0.182	0.0004498973
0.1822	-0.003072038
0.1824	-0.006563469
0.1826	-0.009397626
0.1828	-0.01225828
0.183	-0.01410346
0.1832	-0.01631169
0.1834	-0.017837
0.1836	-0.01972219
0.1838	-0.0219218
0.184	-0.02332516
0.1842	-0.02374866
0.1844	-0.02695817
0.1846	-0.02971934
0.1848	-0.03043645
0.185	-0.03020326
0.1852	-0.03022461
0.1854	-0.03319689
0.1856	-0.03383882
0.1858	-0.03390681
0.186	-0.03464563
0.1862	-0.03414994
0.1864	-0.03275169
0.1866	-0.03267616
0.1868	-0.03364991
0.187	-0.03481783
0.1872	-0.03604126
0.1874	-0.03588261
0.1876	-0.036364
0.1878	-0.03635552
0.188	-0.03276162
0.1882	-0.0306621
0.1884	-0.0292672
0.1886	-0.02708948
0.1888	-0.02715641
0.189	-0.02514691
0.1892	-0.0242106
0.1894	-0.02506277
0.1896	-0.0241107
0.1898	-0.02201043
0.19	-0.01924641
0.1902	-0.01614085
0.1904	-0.01353911
0.1906	-0.01108718
0.1908	-0.00933586
0.191	-0.008641042
0.1912	-0.007162567
0.1914	-0.004038004
0.1916	-0.0001773837
0.1918	0.002842473
0.192	0.003926925
0.1922	0.008138402
0.1924	0.01216413
0.1926	0.01252276
0.1928	0.01388245
0.193	0.01448822
0.1932	0.01521734
0.1934	0.017458
0.1936	0.02039232
0.1938	0.0212163
0.194	0.02315148
0.1942	0.02500632
0.1944	0.0256984
0.1946	0.02805402
0.1948	0.03058925
0.195	0.03062736
0.1952	0.03009868
0.1954	0.02935744
0.1956	0.02946368
0.1958	0.03094726
0.196	0.03149838
0.1962	0.03064184
0.1964	0.03086162
0.1966	0.03164695
0.1968	0.03138202
0.197	0.03131264
0.1972	0.0315804
0.1974	0.03187644
0.1976	0.03088291
0.1978	0.02992588
0.198	0.02932965
0.1982	0.02793475
0.1984	0.02679248
0.1986	0.02580281
0.1988	0.0255075
0.199	0.0245443
0.1992	0.02290622
0.1994	0.0209838
0.1996	0.02043685
0.1998	0.01926391
0.2	0.01658775
0.2002	0.01526509
0.2004	0.01325544
0.2006	0.01032843
0.2008	0.007281029
0.201	0.005011178
0.2012	0.002972112
0.2014	0.001756674
0.2016	0.0004918873
0.2018	-0.0009491
0.202	-0.003497529
0.2022	-0.006995969
0.2024	-0.008818903
0.2026	-0.009920399
0.2028	-0.01160606
0.203	-0.01424289
0.2032	-0.01573567
0.2034	-0.01701475
0.2036	-0.01823506
0.2038	-0.02036152
0.204	-0.02172837
0.2042	-0.02214119
0.2044	-0.02343944
0.2046	-0.02561902
0.2048	-0.02767669
0.205	-0.02853764
0.2052	-0.02926939
0.2054	-0.02965456
0.2056	-0.02945968
0.2058	-0.02947255
0.206	-0.02924517
0.2062	-0.03049746
0.2064	-0.02975066
0.2066	-0.02903416
0.2068	-0.02940355
0.207	-0.03145672
0.2072	-0.0309946
0.2074	-0.03037143
0.2076	-0.03011548
0.2078	-0.03018164
0.208	-0.02937149
0.2082	-0.02750466
0.2084	-0.02574231
0.2086	-0.02401967
0.2088	-0.02338362
0.209	-0.02299587
0.2092	-0.02255719
0.2094	-0.01997162
0.2096	-0.01705455
0.2098	-0.01524707
0.21	-0.01429942
0.2102	-0.01347108
0.2104	-0.01121879
0.2106	-0.009876974
0.2108	-0.008517769
0.211	-0.008001469
0.2112	-0.006609981
0.2114	-0.004138798
0.2116	-0.001609728
0.2118	0.002224473
0.212	0.003898714
0.2122	0.005818988
0.2124	0.008554731
0.2126	0.01087926
0.2128	0.01233352
0.213	0.01361958
0.2132	0.01545006
0.2134	0.01631347
0.2136	0.01783541
0.2138	0.02022656
0.214	0.02334797
0.2142	0.02615574
0.2144	0.02806416
0.2146	0.02868142
0.2148	0.02833156
0.215	0.02857509
0.2152	0.02801841
0.2154	0.02780526
0.2156	0.02670458
0.2158	0.0294075
0.216	0.03059039
0.2162	0.03093675
0.2164	0.03119151
0.2166	0.02963444
0.2168	0.02909622
0.217	0.02958674
0.2172	0.02864162
0.2174	0.02906186
0.2176	0.02910591
0.2178	0.02860386
0.218	0.02782411
0.2182	0.0261466
0.2184	0.02443415
0.2186	0.02465157
0.2188	0.02398563
0.219	0.02441735
0.2192	0.02480936
0.2194	0.02315919
0.2196	0.02136164
0.2198	0.01850882
0.22	0.01640458
0.2202	0.01486937
0.2204	0.01285129
0.2206	0.01089609
0.2208	0.008983296
0.221	0.00725393
0.2212	0.005797431
0.2214	0.004317139
0.2216	0.002543964
0.2218	0.0001875551
0.222	-0.001244555
0.2222	-0.002122584
0.2224	-0.002836158
0.2226	-0.005287779
0.2228	-0.008822216
0.223	-0.01247853
0.2232	-0.01550158
0.2234	-0.01773925
0.2236	-0.02005069
0.2238	-0.02287988
0.224	-0.0241595
0.2242	-0.0237488
0.2244	-0.02530419
0.2246	-0.02728147
0.2248	-0.02829213
0.225	-0.0303023
0.2252	-0.0319774
0.2254	-0.03194898
0.2256	-0.0315579
0.2258	-0.03167822
0.226	-0.03215586
0.2262	-0.03392307
0.2264	-0.03459752
0.2266	-0.03347985
0.2268	-0.03315053
0.227	-0.03416944
0.2272	-0.03222387
0.2274	-0.03098265
0.2276	-0.03131547
0.2278	-0.03099185
0.228	-0.03037272
0.2282	-0.02849876
0.2284	-0.02737844
0.2286	-0.02610937
0.2288	-0.02548961
0.229	-0.02435507
0.2292	-0.02318199
0.2294	-0.02190337
0.2296	-0.02019984
0.2298	-0.01880897
0.23	-0.01754019
0.2302	-0.01431092
0.2304	-0.01081946
0.2306	-0.009895801
0.2308	-0.009094926
0.231	-0.008095695
0.2312	-0.005803586
0.2314	-0.00384087
0.2316	-0.00274332
0.2318	-0.000141857
0.232	0.002151718
0.2322	0.005428405
0.2324	0.008580081
0.2326	0.01039101
0.2328	0.01150386
0.233	0.01367896
0.2332	0.0170897
0.2334	0.0203596
0.2336	0.02020441
0.2338	0.02035912
0.234	0.0224963
0.2342	0.02395882
0.2344	0.02527786
0.2346	0.0261893
0.2348	0.02659306
0.235	0.02533653
0.2352	0.02455502
0.2354	0.02625169
0.2356	0.02766456
0.2358	0.02928663
0.236	0.03140784
0.2362	0.03169583
0.2364	0.03181872
0.2366	0.0322625
0.2368	0.03273593
0.237	0.03390074
0.2372	0.03497988
0.2374	0.03413284
0.2376	0.03421883
0.2378	0.03459655
0.238	0.03376919
0.2382	0.03153056
0.2384	0.02824726
0.2386	0.02662026
0.2388	0.02457093
0.239	0.02399908
0.2392	0.02315088
0.2394	0.02186343
0.2396	0.02017223
0.2398	0.01836604
0.24	0.01528367
0.2402	0.01354734
0.2404	0.01231891
0.2406	0.01050229
0.2408	0.008584635
0.241	0.006182207
0.2412	0.005177413
0.2414	0.004759476
0.2416	0.003553086
0.2418	0.002230199
0.242	-0.0005944616
0.2422	-0.002867963
0.2424	-0.00466246
0.2426	-0.007550873
0.2428	-0.009907861
0.243	-0.01267839
0.2432	-0.01374103
0.2434	-0.01511632
0.2436	-0.01772829
0.2438	-0.01824322
0.244	-0.02028441
0.2442	-0.02150794
0.2444	-0.02372906
0.2446	-0.02749397
0.2448	-0.0290204
0.245	-0.0285489
0.2452	-0.0280689
0.2454	-0.02904211
0.2456	-0.02908895
0.2458	-0.03089688
0.246	-0.03301224
0.2462	-0.03343312
0.2464	-0.03248987
0.2466	-0.03279937
0.2468	-0.03352396
0.247	-0.03339576
0.2472	-0.03337165
0.2474	-0.03311834
0.2476	-0.03125882
0.2478	-0.02926239
0.248	-0.02781571
0.2482	-0.02592461
0.2484	-0.02560927
0.2486	-0.02681962
0.2488	-0.02601254
0.249	-0.02356752
0.2492	-0.02240141
0.2494	-0.02178263
0.2496	-0.01875561
0.2498	-0.01669474
0.25	-0.01564562
0.2502	-0.0132513
0.2504	-0.01170701
0.2506	-0.01000603
0.2508	-0.008936744
0.251	-0.008109947
0.2512	-0.005889082
0.2514	-0.002961722
0.2516	-0.0005250817
0.2518	0.002086164
0.252	0.005599878
0.2522	0.007632984
0.2524	0.008741206
0.2526	0.008893491
0.2528	0.00922052
0.253	0.01144708
0.2532	0.01555677
0.2534	0.01866064
0.2536	0.01928049
0.2538	0.02050503
0.254	0.02105993
0.2542	0.02256796
0.2544	0.0226788
0.2546	0.0240344
0.2548	0.02503339
0.255	0.02561263
0.2552	0.02733343
0.2554	0.02724111
0.2556	0.02874124
0.2558	0.02857014
0.256	0.02879452
0.2562	0.03079119
0.2564	0.03133123
0.2566	0.02885932
0.2568	0.0285269
0.257	0.02807708
0.2572	0.02747898
0.2574	0.02859526
0.2576	0.02741288
0.2578	0.02773985
0.258	0.02854992
0.2582	0.02882601
0.2584	0.02683173
0.2586	0.02456469
0.2588	0.02300525
0.259	0.02033767
0.2592	0.01939851
0.2594	0.01812956
0.2596	0.01554995
0.2598	0.01440544
0.26	0.01328862
0.2602	0.01162597
0.2604	0.01134882
0.2606	0.009914462
0.2608	0.007464237
0.261	0.005728386
0.2612	0.006109753
0.2614	0.005639677
0.2616	0.004005107
0.2618	0.002050574
0.262	-0.0005842511
0.2622	-0.003433713
0.2624	-0.00582179
0.2626	-0.008192979
0.2628	-0.01028606
0.263	-0.01195088
0.2632	-0.01498952
0.2634	-0.01668392
0.2636	-0.01846871
0.2638	-0.02011446
0.264	-0.02103715
0.2642	-0.02208699
0.2644	-0.02271056
0.2646	-0.02326335
0.2648	-0.02505459
0.265	-0.02628471
0.2652	-0.02707828
0.2654	-0.02722302
0.2656	-0.0270981
0.2658	-0.02856466
0.266	-0.02954468
0.2662	-0.02844451
0.2664	-0.02839228
0.2666	-0.02837322
0.2668	-0.02783861
0.267	-0.02737522
0.2672	-0.02771621
0.2674	-0.02910091
0.2676	-0.02925125
0.2678	-0.02726735
0.268	-0.02665346
0.2682	-0.02586075
0.2684	-0.02502328
0.2686	-0.02405208
0.2688	-0.02354599
0.269	-0.02310086
0.2692	-0.02021251
0.2694	-0.01897811
0.2696	-0.01855265
0.2698	-0.01613128
0.27	-0.0153686
0.2702	-0.01417591
0.2704	-0.01184481
0.2706	-0.009762483
0.2708	-0.008898926
0.271	-0.006841311
0.2712	-0.004668357
0.2714	-0.003663477
0.2716	-0.0003108943
0.2718	0.001502321
0.272	0.003532059
0.2722	0.006431205
0.2724	0.00898839
0.2726	0.01063604
0.2728	0.0113971
0.273	0.01389321
0.2732	0.0154946
0.2734	0.0163403
0.2736	0.01733759
0.2738	0.01906388
0.274	0.02188663
0.2742	0.0242352
0.2744	0.02519109
0.2746	0.0259957
0.2748	0.02546054
0.275	0.02557226
0.2752	0.0263514
0.2754	0.0265997
0.2756	0.02698565
0.2758	0.02878269
0.276	0.02926818
0.2762	0.02974849
0.2764	0.03001933
0.2766	0.03114541
0.2768	0.03254906
0.277	0.03229372
0.2772	0.03190084
0.2774	0.03032731
0.2776	0.03107328
0.2778	0.03090102
0.278	0.03009887
0.2782	0.02866914
0.2784	0.02729258
0.2786	0.02752587
0.2788	0.02694001
0.279	0.02582941
0.2792	0.02426289
0.2794	0.02310948
0.2796	0.02090173
0.2798	0.01884001
0.28	0.01906553
0.2802	0.01843793
0.2804	0.01487624
0.2806	0.0105157
0.2808	0.008614605
0.281	0.007560404
0.2812	0.006262327
0.2814	0.00506287
0.2816	0.003323554
0.2818	0.0003033915
0.282	-0.002312128
0.2822	-0.003446891
0.2824	-0.005700997
0.2826	-0.008533932
0.2828	-0.01047046
0.283	-0.01379584
0.2832	-0.01515932
0.2834	-0.01538893
0.2836	-0.0171209
0.2838	-0.01862669
0.284	-0.01928942
0.2842	-0.02021727
0.2844	-0.0227022
0.2846	-0.02410409
0.2848	-0.02578802
0.285	-0.02704876
0.2852	-0.02841442
0.2854	-0.02917445
0.2856	-0.03065551
0.2858	-0.03232829
0.286	-0.03278252
0.2862	-0.03311617
0.2864	-0.0319975
0.2866	-0.03181579
0.2868	-0.0308358
0.287	-0.03000683
0.2872	-0.03155481
0.2874	-0.03207392
0.2876	-0.03155788
0.2878	-0.03040509
0.288	-0.02851731
0.2882	-0.02726055
0.2884	-0.02492257
0.2886	-0.0240382
0.2888	-0.02416834
0.289	-0.02424538
0.2892	-0.02438175
0.2894	-0.02427038
0.2896	-0.02224086
0.2898	-0.01932458
0.29	-0.01692393
0.2902	-0.01421001
0.2904	-0.0135337
0.2906	-0.01263427
0.2908	-0.01091587
0.291	-0.006852856
0.2912	-0.004444714
0.2914	-0.003610355
0.2916	-0.002391957
0.2918	-0.0006897648
0.292	0.0009516443
0.2922	0.002805557
0.2924	0.004523745
0.2926	0.004955801
0.2928	0.007855369
0.293	0.0110977
0.2932	0.01382832
0.2934	0.01629977
0.2936	0.01877981
0.2938	0.02219628
0.294	0.02286885
0.2942	0.02292632
0.2944	0.0247531
0.2946	0.02687855
0.2948	0.02552574
0.295	0.02412186
0.2952	0.0242361
0.2954	0.02660436
0.2956	0.02722542
0.2958	0.02863041
0.296	0.02982956
0.2962	0.02929259
0.2964	0.02950903
0.2966	0.02868358
0.2968	0.02974668
0.297	0.02959418
0.2972	0.02964718
0.2974	0.02863504
0.2976	0.02898209
0.2978	0.02845144
0.298	0.02897792
0.2982	0.02908982
0.2984	0.02726209
0.2986	0.02618898
0.2988	0.02486157
0.299	0.02451996
0.2992	0.02335744
0.2994	0.0220461
0.2996	0.02075837
0.2998	0.018588
0.3	0.0165898
0.3002	0.01600492
0.3004	0.01429201
0.3006	0.01271175
0.3008	0.0111302
0.301	0.008628006
0.3012	0.007271328
0.3014	0.004967222
0.3016	0.001584809
0.3018	-0.0001974818
0.302	-0.001526994
0.3022	-0.002892982
0.3024	-0.004972105
0.3026	-0.007618141
0.3028	-0.008431767
0.303	-0.009817136
0.3032	-0.01214168
0.3034	-0.01471917
0.3036	-0.01661941
0.3038	-0.0187626
0.304	-0.01985616
0.3042	-0.02134962
0.3044	-0.02291191
0.3046	-0.02493466
0.3048	-0.02766279
0.305	-0.02721531
0.3052	-0.02728242
0.3054	-0.02902371
0.3056	-0.03021117
0.3058	-0.03022396
0.306	-0.02883249
0.3062	-0.02894649
0.3064	-0.02928826
0.3066	-0.02955685
0.3068	-0.02826295
0.307	-0.02792633
0.3072	-0.02865327
0.3074	-0.02951755
0.3076	-0.02866233
0.3078	-0.02793623
0.308	-0.0274639
0.3082	-0.02615318
0.3084	-0.02552938
0.3086	-0.02452422
0.3088	-0.02296295
0.309	-0.02028655
0.3092	-0.01902273
0.3094	-0.01774681
0.3096	-0.01649958
0.3098	-0.0153487
0.31	-0.01410547
0.3102	-0.01390411
0.3104	-0.01326342
0.3106	-0.01112506
0.3108	-0.009758358
0.311	-0.007505313
0.3112	-0.005932749
0.3114	-0.003071063
0.3116	-0.00110147
0.3118	0.0003124561
0.312	0.002602007
0.3122	0.004298336
0.3124	0.006453271
0.3126	0.008972112
0.3128	0.01191303
0.313	0.01304252
0.3132	0.01339162
0.3134	0.0151483
0.3136	0.01786144
0.3138	0.018371
0.314	0.01857847
0.3142	0.02023924
0.3144	0.02187974
0.3146	0.02283082
0.3148	0.02401042
0.315	0.02483676
0.3152	0.02449105
0.3154	0.02388408
0.3156	0.02356124
0.3158	0.02392271
0.316	0.02507084
0.3162	0.02527215
0.3164	0.02559206
0.3166	0.02519921
0.3168	0.02586789
0.317	0.02675224
0.3172	0.02460444
0.3174	0.02438864
0.3176	0.02574265
0.3178	0.02645521
0.318	0.02684813
0.3182	0.02707917
0.3184	0.02519063
0.3186	0.02378325
0.3188	0.02297127
0.319	0.02073472
0.3192	0.02031145
0.3194	0.02016488
0.3196	0.01969451
0.3198	0.01841608
0.32	0.01660126
0.3202	0.01437387
0.3204	0.01284388
0.3206	0.01172406
0.3208	0.0103256
0.321	0.009083746
0.3212	0.006616914
0.3214	0.005700822
0.3216	0.004609098
0.3218	0.002964408
0.322	0.0007407562
0.3222	-0.0007689963
0.3224	-0.00230933
0.3226	-0.00407092
0.3228	-0.005934117
0.323	-0.008599337
0.3232	-0.01153499
0.3234	-0.01389947
0.3236	-0.01475392
0.3238	-0.01713278
0.324	-0.01872093
0.3242	-0.021501
0.3244	-0.02266404
0.3246	-0.02266088
0.3248	-0.02531515
0.325	-0.02796484
0.3252	-0.02682026
0.3254	-0.02624802
0.3256	-0.02844237
0.3258	-0.02801095
0.326	-0.02775517
0.3262	-0.02816515
0.3264	-0.02890797
0.3266	-0.03058995
0.3268	-0.03107698
0.327	-0.03188303
0.3272	-0.03158893
0.3274	-0.03086992
0.3276	-0.02979945
0.3278	-0.02863428
0.328	-0.02822486
0.3282	-0.02771889
0.3284	-0.02723635
0.3286	-0.0254697
0.3288	-0.02412779
0.329	-0.02369548
0.3292	-0.02282171
0.3294	-0.02207787
0.3296	-0.01949014
0.3298	-0.01755049
0.33	-0.01470627
0.3302	-0.01351983
0.3304	-0.01240845
0.3306	-0.01024765
0.3308	-0.008814069
0.331	-0.006717026
0.3312	-0.005708761
0.3314	-0.003568385
0.3316	-0.001997713
0.3318	0.0001634796
0.332	0.002431044
0.3322	0.004422254
0.3324	0.007290335
0.3326	0.009687793
0.3328	0.01097482
0.333	0.01237007
0.3332	0.01576734
0.3334	0.01678953
0.3336	0.01918804
0.3338	0.02102487
0.334	0.02169758
0.3342	0.02287148
0.3344	0.02335559
0.3346	0.02452555
0.3348	0.02573016
0.335	0.0258801
0.3352	0.02655628
0.3354	0.02894582
0.3356	0.02945759
0.3358	0.02987465
0.336	0.03032377
0.3362	0.02960201
0.3364	0.02890327
0.3366	0.02940238
0.3368	0.0301829
0.337	0.0303098
0.3372	0.03068853
0.3374	0.030354
0.3376	0.03009351
0.3378	0.02950615
0.338	0.0297179
0.3382	0.02877026
0.3384	0.02693937
0.3386	0.02448406
0.3388	0.0244114
0.339	0.02459444
0.3392	0.02235357
0.3394	0.02098174
0.3396	0.01889144
0.3398	0.01578816
0.34	0.01314343
0.3402	0.009853827
0.3404	0.009842535
0.3406	0.008841052
0.3408	0.006273047
0.341	0.004996837
0.3412	0.004042784
0.3414	0.004209496
0.3416	0.001883096
0.3418	0.0001218827
0.342	-0.001031027
0.3422	-0.00241739
0.3424	-0.004316309
0.3426	-0.007525438
0.3428	-0.01103074
0.343	-0.01364596
0.3432	-0.01575899
0.3434	-0.01836818
0.3436	-0.02133669
0.3438	-0.02231857
0.344	-0.02346077
0.3442	-0.02530842
0.3444	-0.02642802
0.3446	-0.02853403
0.3448	-0.03017352
0.345	-0.03050604
0.3452	-0.02803966
0.3454	-0.02824121
0.3456	-0.0302103
0.3458	-0.03223115
0.346	-0.03350876
0.3462	-0.03146779
0.3464	-0.03044938
0.3466	-0.03059107
0.3468	-0.03126309
0.347	-0.03100242
0.3472	-0.02872337
0.3474	-0.02749318
0.3476	-0.02606251
0.3478	-0.02605866
0.348	-0.02721202
0.3482	-0.02613849
0.3484	-0.02560388
0.3486	-0.02541334
0.3488	-0.02356511
0.349	-0.02159622
0.3492	-0.02012373
0.3494	-0.01889029
0.3496	-0.01810407
0.3498	-0.01558976
0.35	-0.01308538
0.3502	-0.01044349
0.3504	-0.008439875
0.3506	-0.008536602
0.3508	-0.007437011
0.351	-0.006094461
0.3512	-0.005378552
0.3514	-0.003443387
0.3516	-0.001742174
0.3518	0.0003987835
0.352	0.001355639
0.3522	0.003613445
0.3524	0.004634787
0.3526	0.005479693
0.3528	0.008543069
0.353	0.01157651
0.3532	0.01281585
0.3534	0.01553976
0.3536	0.01747399
0.3538	0.01771742
0.354	0.018973
0.3542	0.02022895
0.3544	0.02290761
0.3546	0.02429948
0.3548	0.02527623
0.355	0.0253332
0.3552	0.0244428
0.3554	0.02585206
0.3556	0.02709706
0.3558	0.02751173
0.356	0.02834787
0.3562	0.02750724
0.3564	0.02714074
0.3566	0.02777896
0.3568	0.02786004
0.357	0.02767338
0.3572	0.02790597
0.3574	0.02747967
0.3576	0.0256994
0.3578	0.02671442
0.358	0.02654191
0.3582	0.0264999
0.3584	0.02571581
0.3586	0.02478204
0.3588	0.02389949
0.359	0.0226616
0.3592	0.0204773
0.3594	0.01861637
0.3596	0.01790257
0.3598	0.01605734
0.36	0.01457003
0.3602	0.01263607
0.3604	0.01052864
0.3606	0.008650797
0.3608	0.006870627
0.361	0.005425075
0.3612	0.003504896
0.3614	0.002420995
0.3616	-0.0006759666
0.3618	-0.002300222
0.362	-0.00213203
0.3622	-0.004545414
0.3624	-0.007163126
0.3626	-0.008951685
0.3628	-0.01251053
0.363	-0.01283733
0.3632	-0.01260121
0.3634	-0.01341945
0.3636	-0.0151055
0.3638	-0.01785588
0.364	-0.01908804
0.3642	-0.02030735
0.3644	-0.02413675
0.3646	-0.02488497
0.3648	-0.02399721
0.365	-0.02387409
0.3652	-0.02280273
0.3654	-0.02201907
0.3656	-0.02199678
0.3658	-0.0234946
0.366	-0.02491488
0.3662	-0.02606192
0.3664	-0.02704559
0.3666	-0.02724953
0.3668	-0.02629241
0.367	-0.02370812
0.3672	-0.02414364
0.3674	-0.02399091
0.3676	-0.02280785
0.3678	-0.0226008
0.368	-0.02181703
0.3682	-0.02097402
0.3684	-0.0208157
0.3686	-0.02039965
0.3688	-0.01988482
0.369	-0.01648722
0.3692	-0.01547834
0.3694	-0.01539609
0.3696	-0.01343536
0.3698	-0.01142624
0.37	-0.009859531
0.3702	-0.008697729
0.3704	-0.006299953
0.3706	-0.003722296
0.3708	-0.003542096
0.371	-0.003639018
0.3712	-0.004080148
0.3714	-0.00413048
0.3716	-0.002717647
0.3718	-0.002110217
0.372	0.0002648852
0.3722	0.003108934
0.3724	0.005558329
0.3726	0.006773171
0.3728	0.007810782
0.373	0.008554954
0.3732	0.00895172
0.3734	0.01037104
0.3736	0.01165455
0.3738	0.01203051
0.374	0.01266099
0.3742	0.01369237
0.3744	0.01422003
0.3746	0.0154689
0.3748	0.01568345
0.375	0.01620512
0.3752	0.01777259
0.3754	0.01933522
0.3756	0.02267366
0.3758	0.02545823
0.376	0.02773324
0.3762	0.02848676
0.3764	0.027423
0.3766	0.02637565
0.3768	0.02722101
0.377	0.02740412
0.3772	0.02794736
0.3774	0.02765673
0.3776	0.02769066
0.3778	0.02865522
0.378	0.02656188
0.3782	0.02392117
0.3784	0.02304304
0.3786	0.02245698
0.3788	0.02172191
0.379	0.02142863
0.3792	0.0210908
0.3794	0.0192877
0.3796	0.01632256
0.3798	0.01452401
0.38	0.01310057
0.3802	0.01233221
0.3804	0.01231302
0.3806	0.01113788
0.3808	0.009164493
0.381	0.008298729
0.3812	0.007548792
0.3814	0.005779252
0.3816	0.002910162
0.3818	0.0002105276
0.382	-0.002004785
0.3822	-0.005196386
0.3824	-0.008624822
0.3826	-0.01099509
0.3828	-0.01174021
0.383	-0.01307653
0.3832	-0.01439853
0.3834	-0.01600742
0.3836	-0.01787776
0.3838	-0.01780525
0.384	-0.01837533
0.3842	-0.01888966
0.3844	-0.02062385
0.3846	-0.02216562
0.3848	-0.02276744
0.385	-0.02197903
0.3852	-0.02258095
0.3854	-0.02421521
0.3856	-0.02478264
0.3858	-0.02388088
0.386	-0.02450661
0.3862	-0.02446328
0.3864	-0.02435381
0.3866	-0.02522243
0.3868	-0.02551829
0.387	-0.02550138
0.3872	-0.02664432
0.3874	-0.02555695
0.3876	-0.0251101
0.3878	-0.02542161
0.388	-0.02599679
0.3882	-0.02539472
0.3884	-0.02461524
0.3886	-0.02457273
0.3888	-0.0235265
0.389	-0.02198405
0.3892	-0.02018442
0.3894	-0.01762015
0.3896	-0.01573354
0.3898	-0.01469316
0.39	-0.01292487
0.3902	-0.01222539
0.3904	-0.0111557
0.3906	-0.009680459
0.3908	-0.008148644
0.391	-0.005967273
0.3912	-0.003494405
0.3914	-0.001589721
0.3916	0.000464806
0.3918	0.001515436
0.392	0.002955388
0.3922	0.004601218
0.3924	0.007451339
0.3926	0.008496255
0.3928	0.009783079
0.393	0.01177923
0.3932	0.01345426
0.3934	0.01408997
0.3936	0.01648524
0.3938	0.01842558
0.394	0.02004945
0.3942	0.02037225
0.3944	0.02176703
0.3946	0.0237355
0.3948	0.02509652
0.395	0.02656056
0.3952	0.0270241
0.3954	0.02728945
0.3956	0.02663826
0.3958	0.02699609
0.396	0.02893256
0.3962	0.02834283
0.3964	0.02592287
0.3966	0.02684063
0.3968	0.02741579
0.397	0.02813121
0.3972	0.02896351
0.3974	0.02956085
0.3976	0.02939358
0.3978	0.02813906
0.398	0.02718162
0.3982	0.02638351
0.3984	0.02463692
0.3986	0.02298285
0.3988	0.02243804
0.399	0.02226567
0.3992	0.02124327
0.3994	0.01940401
0.3996	0.01812102
0.3998	0.01597818
0.4	0.01360202
0.4002	0.0117997
0.4004	0.01037967
0.4006	0.008189437
0.4008	0.006570298
0.401	0.005580176
0.4012	0.003981738
0.4014	0.003458407
0.4016	0.002524671
0.4018	0.0006238613
0.402	-0.001797913
0.4022	-0.003761714
0.4024	-0.004439843
0.4026	-0.00517239
0.4028	-0.008605935
0.403	-0.01161977
0.4032	-0.01451209
0.4034	-0.01549547
0.4036	-0.01674214
0.4038	-0.01835909
0.404	-0.02057034
0.4042	-0.02354389
0.4044	-0.02614491
0.4046	-0.02665608
0.4048	-0.02623673
0.405	-0.02671918
0.4052	-0.02691119
0.4054	-0.02767315
0.4056	-0.02808495
0.4058	-0.02909465
0.406	-0.02943813
0.4062	-0.02926641
0.4064	-0.02715187
0.4066	-0.0271088
0.4068	-0.02830845
0.407	-0.0278675
0.4072	-0.02785393
0.4074	-0.02780491
0.4076	-0.02786618
0.4078	-0.02800981
0.408	-0.02762579
0.4082	-0.02657578
0.4084	-0.02365888
0.4086	-0.02216818
0.4088	-0.02285074
0.409	-0.02196868
0.4092	-0.01901733
0.4094	-0.0164165
0.4096	-0.01441026
0.4098	-0.01277717
0.41	-0.01181006
0.4102	-0.009619621
0.4104	-0.008189898
0.4106	-0.007952136
0.4108	-0.006494239
0.411	-0.005044132
0.4112	-0.004570204
0.4114	-0.00245795
0.4116	0.0003673203
0.4118	0.002638527
0.412	0.00351654
0.4122	0.006594808
0.4124	0.008629846
0.4126	0.009712601
0.4128	0.0101264
0.413	0.01211013
0.4132	0.01407297
0.4134	0.01554594
0.4136	0.0171531
0.4138	0.01777886
0.414	0.01652987
0.4142	0.01790319
0.4144	0.01798144
0.4146	0.01864164
0.4148	0.01922611
0.415	0.01920894
0.4152	0.0202382
0.4154	0.02172158
0.4156	0.02314882
0.4158	0.0240481
0.416	0.02535058
0.4162	0.02536323
0.4164	0.02654461
0.4166	0.02852591
0.4168	0.02943357
0.417	0.02878669
0.4172	0.02853246
0.4174	0.0283788
0.4176	0.02815799
0.4178	0.02826153
0.418	0.02732074
0.4182	0.0249862
0.4184	0.02436569
0.4186	0.02306724
0.4188	0.02272218
0.419	0.02165388
0.4192	0.02029752
0.4194	0.01872955
0.4196	0.01612745
0.4198	0.01304694
0.42	0.01139479
0.4202	0.01088306
0.4204	0.009305847
0.4206	0.008291754
0.4208	0.007842968
0.421	0.006318008
0.4212	0.00533229
0.4214	0.003254954
0.4216	0.00182468
0.4218	0.0004301693
0.422	-0.00202
0.4222	-0.003830692
0.4224	-0.005571632
0.4226	-0.008496198
0.4228	-0.009390611
0.423	-0.009743243
0.4232	-0.01207465
0.4234	-0.01279794
0.4236	-0.01418652
0.4238	-0.01556938
0.424	-0.01764462
0.4242	-0.01991713
0.4244	-0.02163944
0.4246	-0.02158937
0.4248	-0.02168065
0.425	-0.0228978
0.4252	-0.02391862
0.4254	-0.02402562
0.4256	-0.02573088
0.4258	-0.02716001
0.426	-0.02740784
0.4262	-0.02757854
0.4264	-0.02669807
0.4266	-0.02657168
0.4268	-0.02703684
0.427	-0.02780781
0.4272	-0.02800177
0.4274	-0.02665604
0.4276	-0.02652113
0.4278	-0.02516037
0.428	-0.02438302
0.4282	-0.02455415
0.4284	-0.02386616
0.4286	-0.02370738
0.4288	-0.02300932
0.429	-0.02198348
0.4292	-0.02094295
0.4294	-0.01937177
0.4296	-0.01635228
0.4298	-0.01441274
0.43	-0.01145039
0.4302	-0.01039414
0.4304	-0.00916126
0.4306	-0.007238637
0.4308	-0.005988991
0.431	-0.004767205
0.4312	-0.003310149
0.4314	-0.001816901
0.4316	-0.0004771798
0.4318	0.001963097
0.432	0.004813932
0.4322	0.005565832
0.4324	0.007189846
0.4326	0.009810112
0.4328	0.01276243
0.433	0.01265706
0.4332	0.013225
0.4334	0.01640929
0.4336	0.01778915
0.4338	0.02001994
0.434	0.02260117
0.4342	0.02451644
0.4344	0.02367145
0.4346	0.02200761
0.4348	0.02131768
0.435	0.02296451
0.4352	0.02469228
0.4354	0.02656668
0.4356	0.02783133
0.4358	0.02739425
0.436	0.02898774
0.4362	0.02926442
0.4364	0.0285856
0.4366	0.02791284
0.4368	0.02863699
0.437	0.02904714
0.4372	0.02939023
0.4374	0.02971785
0.4376	0.02818185
0.4378	0.02794306
0.438	0.02836359
0.4382	0.02718069
0.4384	0.02468369
0.4386	0.02270603
0.4388	0.02114441
0.439	0.02057835
0.4392	0.01987057
0.4394	0.01801688
0.4396	0.01724444
0.4398	0.01514016
0.44	0.01236151
0.4402	0.01217031
0.4404	0.01048474
0.4406	0.008956971
0.4408	0.008374409
0.441	0.006474673
0.4412	0.005806869
0.4414	0.004223579
0.4416	0.001187042
0.4418	-0.001998252
0.442	-0.004787508
0.4422	-0.006357372
0.4424	-0.008126059
0.4426	-0.01112216
0.4428	-0.01300219
0.443	-0.01370755
0.4432	-0.01485069
0.4434	-0.01754188
0.4436	-0.01844263
0.4438	-0.01984439
0.444	-0.02107943
0.4442	-0.02318089
0.4444	-0.02535726
0.4446	-0.02580523
0.4448	-0.02488796
0.445	-0.02433327
0.4452	-0.02418949
0.4454	-0.02512813
0.4456	-0.02486281
0.4458	-0.02462453
0.446	-0.02545768
0.4462	-0.02610907
0.4464	-0.02651437
0.4466	-0.02753643
0.4468	-0.02799194
0.447	-0.02743409
0.4472	-0.02662204
0.4474	-0.02516991
0.4476	-0.02489409
0.4478	-0.02570199
0.448	-0.0266575
0.4482	-0.02606426
0.4484	-0.02501207
0.4486	-0.02599188
0.4488	-0.02531564
0.449	-0.02309511
0.4492	-0.02239581
0.4494	-0.02081751
0.4496	-0.01844168
0.4498	-0.01787121
0.45	-0.01738364
0.4502	-0.01429174
0.4504	-0.01196307
0.4506	-0.01010999
0.4508	-0.0080532
0.451	-0.00565432
0.4512	-0.003689876
0.4514	-0.002877467
0.4516	-0.001118761
0.4518	0.001679455
0.452	0.003667527
0.4522	0.004284696
0.4524	0.005990135
0.4526	0.008724982
0.4528	0.01078924
0.453	0.01168805
0.4532	0.0132341
0.4534	0.01499827
0.4536	0.01652849
0.4538	0.01873337
0.454	0.0192172
0.4542	0.02006782
0.4544	0.02208614
0.4546	0.02449743
0.4548	0.026472
0.455	0.02702054
0.4552	0.02653389
0.4554	0.02686834
0.4556	0.02752646
0.4558	0.0276654
0.456	0.02888099
0.4562	0.0296868
0.4564	0.0302264
0.4566	0.0309664
0.4568	0.03121169
0.457	0.03044049
0.4572	0.03059739
0.4574	0.03067424
0.4576	0.02988274
0.4578	0.02907239
0.458	0.02827979
0.4582	0.02579177
0.4584	0.02368844
0.4586	0.02362202
0.4588	0.02333874
0.459	0.02216867
0.4592	0.02161622
0.4594	0.0204217
0.4596	0.01796553
0.4598	0.01589175
0.46	0.01318625
0.4602	0.01101931
0.4604	0.01074884
0.4606	0.01049229
0.4608	0.008792511
0.461	0.008001926
0.4612	0.006357175
0.4614	0.005245431
0.4616	0.004764745
0.4618	0.002647384
0.462	-0.000481845
0.4622	-0.003423704
0.4624	-0.00462267
0.4626	-0.007233581
0.4628	-0.008016472
0.463	-0.009101513
0.4632	-0.0112082
0.4634	-0.01431671
0.4636	-0.01640631
0.4638	-0.01760884
0.464	-0.01866345
0.4642	-0.02071351
0.4644	-0.02358852
0.4646	-0.02357759
0.4648	-0.02408307
0.465	-0.02611386
0.4652	-0.02790336
0.4654	-0.02925177
0.4656	-0.02875269
0.4658	-0.02880332
0.466	-0.02973323
0.4662	-0.03001851
0.4664	-0.03065791
0.4666	-0.02995499
0.4668	-0.0296032
0.467	-0.02978775
0.4672	-0.0293085
0.4674	-0.02890001
0.4676	-0.02903488
0.4678	-0.02787
0.468	-0.02612513
0.4682	-0.02389811
0.4684	-0.0237916
0.4686	-0.02440505
0.4688	-0.02246599
0.469	-0.02189359
0.4692	-0.02119419
0.4694	-0.01995255
0.4696	-0.01820925
0.4698	-0.01646219
0.47	-0.01488411
0.4702	-0.01219592
0.4704	-0.01103449
0.4706	-0.009898848
0.4708	-0.009159527
0.471	-0.00768637
0.4712	-0.006679556
0.4714	-0.005877547
0.4716	-0.005495239
0.4718	-0.002940626
0.472	0.0003826242
0.4722	0.001017521
0.4724	0.001444477
0.4726	0.003200204
0.4728	0.005406069
0.473	0.008824159
0.4732	0.01085731
0.4734	0.01153826
0.4736	0.01246121
0.4738	0.01379918
0.474	0.01454089
0.4742	0.01601566
0.4744	0.01805224
0.4746	0.01939592
0.4748	0.01997063
0.475	0.0221293
0.4752	0.02326963
0.4754	0.02463088
0.4756	0.02609841
0.4758	0.02579896
0.476	0.0249165
0.4762	0.02411896
0.4764	0.02290849
0.4766	0.02411896
0.4768	0.02644361
0.477	0.0276961
0.4772	0.02864826
0.4774	0.0281496
0.4776	0.02777015
0.4778	0.02722063
0.478	0.02410332
0.4782	0.02143041
0.4784	0.02053935
0.4786	0.02118024
0.4788	0.02087604
0.479	0.02054267
0.4792	0.02012437
0.4794	0.01820061
0.4796	0.01507607
0.4798	0.0138127
0.48	0.01322871
0.4802	0.01222572
0.4804	0.01056629
0.4806	0.009047422
0.4808	0.007813446
0.481	0.006918452
0.4812	0.005974818
0.4814	0.005672691
0.4816	0.005301656
0.4818	0.002275312
0.482	0.000974523
0.4822	-0.0008534961
0.4824	-0.003159987
0.4826	-0.005125547
0.4828	-0.004500704
0.483	-0.00669959
0.4832	-0.009476221
0.4834	-0.01238842
0.4836	-0.01512519
0.4838	-0.01828738
0.484	-0.01899575
0.4842	-0.0203358
0.4844	-0.022102
0.4846	-0.02192425
0.4848	-0.0227968
0.485	-0.02397926
0.4852	-0.02412872
0.4854	-0.02368459
0.4856	-0.02538939
0.4858	-0.02660188
0.486	-0.02613599
0.4862	-0.026859
0.4864	-0.02713713
0.4866	-0.02759985
0.4868	-0.02800919
0.487	-0.02729387
0.4872	-0.02606805
0.4874	-0.02583193
0.4876	-0.02650922
0.4878	-0.02552701
0.488	-0.02442037
0.4882	-0.02383471
0.4884	-0.02286244
0.4886	-0.02113742
0.4888	-0.02031806
0.489	-0.01903986
0.4892	-0.01692364
0.4894	-0.01558582
0.4896	-0.01457527
0.4898	-0.01466055
0.49	-0.01165125
0.4902	-0.01022644
0.4904	-0.01073468
0.4906	-0.009603868
0.4908	-0.00823521
0.491	-0.006279251
0.4912	-0.003721552
0.4914	-0.002017761
0.4916	-0.0008954704
0.4918	0.001192671
0.492	0.001647311
0.4922	0.003310729
0.4924	0.007213538
0.4926	0.01010841
0.4928	0.0107555
0.493	0.01203211
0.4932	0.01291165
0.4934	0.01556816
0.4936	0.01826548
0.4938	0.01915381
0.494	0.02170058
0.4942	0.02331297
0.4944	0.02458704
0.4946	0.02483086
0.4948	0.02550862
0.495	0.02617539
0.4952	0.02596633
0.4954	0.02392754
0.4956	0.02202459
0.4958	0.02073961
0.496	0.02278487
0.4962	0.0235243
0.4964	0.02306902
0.4966	0.02197243
0.4968	0.0220117
0.497	0.02339124
0.4972	0.02406512
0.4974	0.02452595
0.4976	0.02528845
0.4978	0.0253577
0.498	0.0251018
0.4982	0.02500786
0.4984	0.02396276
0.4986	0.02317021
0.4988	0.02201959
0.499	0.02027623
0.4992	0.0191818
0.4994	0.01801628
0.4996	0.01555146
0.4998	0.01181237
0.5	0.01005999
0.5002	0.008607535
0.5004	0.009130149
0.5006	0.008669729
0.5008	0.007123751
0.501	0.005621098
0.5012	0.005031746
0.5014	0.0043082
0.5016	0.00213338
0.5018	-0.0004754529
0.502	-0.001621885
0.5022	-0.002201577
0.5024	-0.003994506
0.5026	-0.006401835
0.5028	-0.008761384
0.503	-0.01001604
0.5032	-0.01136997
0.5034	-0.01299972
0.5036	-0.01623809
0.5038	-0.01769335
0.504	-0.01654354
0.5042	-0.01579304
0.5044	-0.01709061
0.5046	-0.01931696
0.5048	-0.02036532
0.505	-0.02167243
0.5052	-0.02150324
0.5054	-0.02193849
0.5056	-0.02189088
0.5058	-0.02105471
0.506	-0.02178156
0.5062	-0.02290106
0.5064	-0.02376441
0.5066	-0.02376796
0.5068	-0.02465243
0.507	-0.0243571
0.5072	-0.0235024
0.5074	-0.02387876
0.5076	-0.02541391
0.5078	-0.02575752
0.508	-0.02396204
0.5082	-0.02316065
0.5084	-0.02338046
0.5086	-0.02179445
0.5088	-0.01888404
0.509	-0.01768964
0.5092	-0.0160871
0.5094	-0.01488346
0.5096	-0.01289701
0.5098	-0.01127409
0.51	-0.01282687
0.5102	-0.01193322
0.5104	-0.01110684
0.5106	-0.009895829
0.5108	-0.007626932
0.511	-0.006598656
0.5112	-0.003450001
0.5114	-0.001550263
0.5116	-6.215334e-5
0.5118	0.001187084
0.512	0.00275968
0.5122	0.004046869
0.5124	0.004331626
0.5126	0.005749374
0.5128	0.007621273
0.513	0.0093024
0.5132	0.01258237
0.5134	0.01456824
0.5136	0.01511951
0.5138	0.01703607
0.514	0.01949405
0.5142	0.02054064
0.5144	0.02056113
0.5146	0.02151561
0.5148	0.02266746
0.515	0.02248077
0.5152	0.0219961
0.5154	0.02345316
0.5156	0.02299084
0.5158	0.02258414
0.516	0.02170314
0.5162	0.02229487
0.5164	0.02315093
0.5166	0.02396392
0.5168	0.02405522
0.517	0.02426911
0.5172	0.02323746
0.5174	0.02246976
0.5176	0.02387319
0.5178	0.02415494
0.518	0.02357427
0.5182	0.02389044
0.5184	0.02348848
0.5186	0.02047327
0.5188	0.01782041
0.519	0.01764174
0.5192	0.0161089
0.5194	0.0150661
0.5196	0.0142268
0.5198	0.01186582
0.52	0.01144216
0.5202	0.008703336
0.5204	0.006722462
0.5206	0.007909481
0.5208	0.007286406
0.521	0.005111605
0.5212	0.00388285
0.5214	0.002915859
0.5216	0.0003643947
0.5218	-0.002643587
0.522	-0.003965049
0.5222	-0.005842237
0.5224	-0.00705256
0.5226	-0.007518111
0.5228	-0.008674336
0.523	-0.01118529
0.5232	-0.01377171
0.5234	-0.01481589
0.5236	-0.01577997
0.5238	-0.01684397
0.524	-0.01777092
0.5242	-0.01844523
0.5244	-0.02153875
0.5246	-0.02322654
0.5248	-0.02332637
0.525	-0.02354065
0.5252	-0.02315071
0.5254	-0.02254319
0.5256	-0.02366042
0.5258	-0.02456566
0.526	-0.02337928
0.5262	-0.02231755
0.5264	-0.02398919
0.5266	-0.02575707
0.5268	-0.02468332
0.527	-0.0239263
0.5272	-0.02476039
0.5274	-0.02418142
0.5276	-0.02446383
0.5278	-0.02424523
0.528	-0.02326345
0.5282	-0.02370219
0.5284	-0.02310835
0.5286	-0.02237936
0.5288	-0.0216473
0.529	-0.0206827
0.5292	-0.01887645
0.5294	-0.01712176
0.5296	-0.01334622
0.5298	-0.01081651
0.53	-0.0108196
0.5302	-0.009805851
0.5304	-0.008102844
0.5306	-0.006213692
0.5308	-0.006358657
0.531	-0.005848992
0.5312	-0.006192871
0.5314	-0.005143791
0.5316	-0.001987716
0.5318	0.0009297336
0.532	0.002562696
0.5322	0.00373087
0.5324	0.005371925
0.5326	0.006928594
0.5328	0.009545289
0.533	0.01171802
0.5332	0.01367002
0.5334	0.0155813
0.5336	0.01591296
0.5338	0.0167629
0.534	0.01839507
0.5342	0.02152303
0.5344	0.0230176
0.5346	0.02282816
0.5348	0.02116617
0.535	0.0208048
0.5352	0.02223744
0.5354	0.02328653
0.5356	0.02332306
0.5358	0.0228969
0.536	0.0232591
0.5362	0.02372502
0.5364	0.02451337
0.5366	0.02426006
0.5368	0.02521523
0.537	0.02665416
0.5372	0.02569138
0.5374	0.02400582
0.5376	0.02411411
0.5378	0.02594485
0.538	0.02556575
0.5382	0.02339363
0.5384	0.02291831
0.5386	0.02113493
0.5388	0.02075148
0.539	0.01901644
0.5392	0.01788607
0.5394	0.01627381
0.5396	0.01415692
0.5398	0.01215984
0.54	0.009416265
0.5402	0.008585024
0.5404	0.007561046
0.5406	0.005425426
0.5408	0.003738555
0.541	0.002123438
0.5412	0.001467838
0.5414	0.001281234
0.5416	0.0003087633
0.5418	-0.001619397
0.542	-0.00325957
0.5422	-0.004670367
0.5424	-0.006269046
0.5426	-0.00862549
0.5428	-0.01039306
0.543	-0.01206698
0.5432	-0.0146879
0.5434	-0.01596215
0.5436	-0.01748826
0.5438	-0.01850907
0.544	-0.01866271
0.5442	-0.01944524
0.5444	-0.02147622
0.5446	-0.02246835
0.5448	-0.02241699
0.545	-0.02215648
0.5452	-0.02366697
0.5454	-0.02579477
0.5456	-0.02589681
0.5458	-0.02461946
0.546	-0.02549035
0.5462	-0.02493015
0.5464	-0.02477184
0.5466	-0.02613862
0.5468	-0.02493473
0.547	-0.02495548
0.5472	-0.0266296
0.5474	-0.02670298
0.5476	-0.02590452
0.5478	-0.02534979
0.548	-0.0239209
0.5482	-0.02265731
0.5484	-0.0220145
0.5486	-0.02063855
0.5488	-0.0197685
0.549	-0.01954858
0.5492	-0.01843333
0.5494	-0.01717248
0.5496	-0.01482918
0.5498	-0.01287188
0.55	-0.01103368
0.5502	-0.009890122
0.5504	-0.008892813
0.5506	-0.007356304
0.5508	-0.005570248
0.551	-0.003861167
0.5512	-0.001889333
0.5514	0.0003015389
0.5516	0.001978638
0.5518	0.003689833
0.552	0.005057143
0.5522	0.007077501
0.5524	0.008593167
0.5526	0.01036761
0.5528	0.01281056
0.553	0.01485471
0.5532	0.01606485
0.5534	0.01746217
0.5536	0.0185987
0.5538	0.02067048
0.554	0.02124089
0.5542	0.02250847
0.5544	0.02405633
0.5546	0.02428226
0.5548	0.02363133
0.555	0.02520974
0.5552	0.02587168
0.5554	0.02594141
0.5556	0.02690702
0.5558	0.02634727
0.556	0.02765545
0.5562	0.02739601
0.5564	0.0270643
0.5566	0.02783081
0.5568	0.02744545
0.557	0.025768
0.5572	0.02432153
0.5574	0.02405732
0.5576	0.02292086
0.5578	0.02205694
0.558	0.02131319
0.5582	0.01945507
0.5584	0.01660971
0.5586	0.01484878
0.5588	0.01353182
0.559	0.01293093
0.5592	0.0130145
0.5594	0.01205859
0.5596	0.01134114
0.5598	0.009736658
0.56	0.007467847
0.5602	0.007242863
0.5604	0.006485868
0.5606	0.005621796
0.5608	0.004555987
0.561	0.003944387
0.5612	0.005581543
0.5614	0.004319791
0.5616	0.001877587
0.5618	-0.0007274306
0.562	-0.002600007
0.5622	-0.003620873
0.5624	-0.005136289
0.5626	-0.00681181
0.5628	-0.009095794
0.563	-0.01009347
0.5632	-0.009912082
0.5634	-0.01138232
0.5636	-0.01290207
0.5638	-0.01457167
0.564	-0.01555036
0.5642	-0.01657993
0.5644	-0.020092
0.5646	-0.02145513
0.5648	-0.02290622
0.565	-0.0240368
0.5652	-0.02480131
0.5654	-0.02676317
0.5656	-0.02753801
0.5658	-0.02738384
0.566	-0.02713443
0.5662	-0.02637414
0.5664	-0.02547055
0.5666	-0.0259343
0.5668	-0.02503652
0.567	-0.02514038
0.5672	-0.02547181
0.5674	-0.02611406
0.5676	-0.02687074
0.5678	-0.02665083
0.568	-0.0261013
0.5682	-0.02350105
0.5684	-0.02196368
0.5686	-0.02258485
0.5688	-0.02271465
0.569	-0.02100392
0.5692	-0.01944223
0.5694	-0.01909155
0.5696	-0.01836914
0.5698	-0.01609962
0.57	-0.01449448
0.5702	-0.01199327
0.5704	-0.01025966
0.5706	-0.008865223
0.5708	-0.006204868
0.571	-0.003877074
0.5712	-0.003168626
0.5714	-0.001039658
0.5716	0.0006399616
0.5718	0.004117411
0.572	0.005492714
0.5722	0.005416693
0.5724	0.007318958
0.5726	0.009373811
0.5728	0.01106967
0.573	0.01361648
0.5732	0.01606694
0.5734	0.01714047
0.5736	0.01677796
0.5738	0.01711912
0.574	0.01974735
0.5742	0.02148145
0.5744	0.02187295
0.5746	0.02217002
0.5748	0.02188493
0.575	0.02197109
0.5752	0.02345183
0.5754	0.02479335
0.5756	0.02566098
0.5758	0.0271781
0.576	0.02874793
0.5762	0.02951478
0.5764	0.02748454
0.5766	0.02803572
0.5768	0.02853243
0.577	0.0263663
0.5772	0.02655399
0.5774	0.02685724
0.5776	0.02496195
0.5778	0.02498273
0.578	0.02506316
0.5782	0.02462362
0.5784	0.02450687
0.5786	0.02419921
0.5788	0.02256199
0.579	0.02258019
0.5792	0.02028354
0.5794	0.01775665
0.5796	0.01623303
0.5798	0.01368688
0.58	0.01159407
0.5802	0.01010982
0.5804	0.009702207
0.5806	0.008151681
0.5808	0.008465074
0.581	0.006535411
0.5812	0.005195572
0.5814	0.003041158
0.5816	0.0008727378
0.5818	-0.001092462
0.582	-0.003509167
0.5822	-0.006042563
0.5824	-0.006411941
0.5826	-0.008080525
0.5828	-0.009493659
0.583	-0.01179662
0.5832	-0.0144077
0.5834	-0.01428276
0.5836	-0.01536526
0.5838	-0.01691787
0.584	-0.01647069
0.5842	-0.01634719
0.5844	-0.01710159
0.5846	-0.01843968
0.5848	-0.0188619
0.585	-0.02047077
0.5852	-0.02139179
0.5854	-0.023179
0.5856	-0.02473389
0.5858	-0.02388834
0.586	-0.02386989
0.5862	-0.02436349
0.5864	-0.02527856
0.5866	-0.02536235
0.5868	-0.02610732
0.587	-0.02527076
0.5872	-0.02583401
0.5874	-0.02646727
0.5876	-0.02738648
0.5878	-0.0275244
0.588	-0.02619177
0.5882	-0.0248846
0.5884	-0.02302104
0.5886	-0.02218429
0.5888	-0.02154443
0.589	-0.02082234
0.5892	-0.02039967
0.5894	-0.01873435
0.5896	-0.01720322
0.5898	-0.01656174
0.59	-0.01655878
0.5902	-0.01542975
0.5904	-0.01414267
0.5906	-0.01357416
0.5908	-0.01221361
0.591	-0.01100839
0.5912	-0.008408059
0.5914	-0.006383969
0.5916	-0.005513889
0.5918	-0.004708054
0.592	-0.002990686
0.5922	-0.0009339207
0.5924	0.0005984493
0.5926	0.002838406
0.5928	0.005848805
0.593	0.007894462
0.5932	0.01197313
0.5934	0.01421427
0.5936	0.01460151
0.5938	0.01677567
0.594	0.01900927
0.5942	0.02010012
0.5944	0.02025421
0.5946	0.01965448
0.5948	0.01966944
0.595	0.02092369
0.5952	0.02174061
0.5954	0.02142897
0.5956	0.02311959
0.5958	0.02520008
0.596	0.02571863
0.5962	0.02651597
0.5964	0.02571028
0.5966	0.0247211
0.5968	0.02546284
0.597	0.02656419
0.5972	0.02737432
0.5974	0.02856567
0.5976	0.02932867
0.5978	0.02938961
0.598	0.02827368
0.5982	0.02681029
0.5984	0.02529314
0.5986	0.02407417
0.5988	0.02183884
0.599	0.0203782
0.5992	0.02023514
0.5994	0.01920644
0.5996	0.01811148
0.5998	0.01742674
0.6	0.0162281
0.6002	0.01293191
0.6004	0.01029986
0.6006	0.008594186
0.6008	0.007881611
0.601	0.006753778
0.6012	0.004992084
0.6014	0.003629245
0.6016	0.001788154
0.6018	0.0002370157
0.602	-0.001827518
0.6022	-0.003665191
0.6024	-0.006382386
0.6026	-0.009818277
0.6028	-0.01147419
0.603	-0.0126026
0.6032	-0.01233324
0.6034	-0.0125005
0.6036	-0.01402755
0.6038	-0.0146634
0.604	-0.01591804
0.6042	-0.01856145
0.6044	-0.01921203
0.6046	-0.01959622
0.6048	-0.02045064
0.605	-0.02122232
0.6052	-0.0218874
0.6054	-0.02248676
0.6056	-0.02365429
0.6058	-0.02456877
0.606	-0.02634526
0.6062	-0.02575674
0.6064	-0.02361366
0.6066	-0.02343286
0.6068	-0.02512608
0.607	-0.02429268
0.6072	-0.02272414
0.6074	-0.02172964
0.6076	-0.02208028
0.6078	-0.02355608
0.608	-0.02346914
0.6082	-0.02464123
0.6084	-0.02314849
0.6086	-0.0222647
0.6088	-0.0213098
0.609	-0.01996968
0.6092	-0.01763822
0.6094	-0.01629753
0.6096	-0.01491537
0.6098	-0.01185482
0.61	-0.01037993
0.6102	-0.008429548
0.6104	-0.008873004
0.6106	-0.009027699
0.6108	-0.006493312
0.611	-0.005429973
0.6112	-0.004135483
0.6114	-0.000852885
0.6116	0.002210583
0.6118	0.003615816
0.612	0.003705814
0.6122	0.00495015
0.6124	0.006631178
0.6126	0.008612449
0.6128	0.01042652
0.613	0.01140681
0.6132	0.01239716
0.6134	0.01364686
0.6136	0.01513007
0.6138	0.01643663
0.614	0.01852774
0.6142	0.02051252
0.6144	0.02178502
0.6146	0.02321583
0.6148	0.02414362
0.615	0.02432665
0.6152	0.02478909
0.6154	0.02447579
0.6156	0.02452903
0.6158	0.02567325
0.616	0.02685708
0.6162	0.02735888
0.6164	0.02649072
0.6166	0.02764987
0.6168	0.02823333
0.617	0.02821224
0.6172	0.02753473
0.6174	0.02599582
0.6176	0.02515269
0.6178	0.02560992
0.618	0.0248051
0.6182	0.02370829
0.6184	0.02177611
0.6186	0.02029937
0.6188	0.02051461
0.619	0.01942812
0.6192	0.01783486
0.6194	0.01655899
0.6196	0.01574286
0.6198	0.01367788
0.62	0.01250278
0.6202	0.01126862
0.6204	0.008388462
0.6206	0.005553231
0.6208	0.004595184
0.621	0.004060294
0.6212	0.002842504
0.6214	0.001231751
0.6216	-0.0006989948
0.6218	-0.003382106
0.622	-0.004149896
0.6222	-0.004140565
0.6224	-0.005201862
0.6226	-0.007373775
0.6228	-0.009926393
0.623	-0.0119093
0.6232	-0.01312785
0.6234	-0.01417568
0.6236	-0.0137387
0.6238	-0.01445878
0.624	-0.01797334
0.6242	-0.02073567
0.6244	-0.02325657
0.6246	-0.02431771
0.6248	-0.02478801
0.625	-0.02628338
0.6252	-0.02615741
0.6254	-0.02569194
0.6256	-0.02633116
0.6258	-0.02814784
0.626	-0.02837252
0.6262	-0.02788651
0.6264	-0.02697636
0.6266	-0.02613346
0.6268	-0.02755778
0.627	-0.02619327
0.6272	-0.02654601
0.6274	-0.02854683
0.6276	-0.03014957
0.6278	-0.02783569
0.628	-0.02322404
0.6282	-0.02222316
0.6284	-0.02088115
0.6286	-0.02001425
0.6288	-0.0195731
0.629	-0.0187109
0.6292	-0.01836891
0.6294	-0.01594972
0.6296	-0.01456395
0.6298	-0.01296827
0.63	-0.01152213
0.6302	-0.009871275
0.6304	-0.0100557
0.6306	-0.008127687
0.6308	-0.006232467
0.631	-0.005360375
0.6312	-0.003257738
0.6314	-0.002038398
0.6316	-0.00198564
0.6318	0.0003484197
0.632	0.002091342
0.6322	0.003918788
0.6324	0.005556297
0.6326	0.006646232
0.6328	0.009025453
0.633	0.01253552
0.6332	0.01489709
0.6334	0.01614852
0.6336	0.01748638
0.6338	0.01779015
0.634	0.01952788
0.6342	0.02160804
0.6344	0.02418991
0.6346	0.02437624
0.6348	0.02324957
0.635	0.02297753
0.6352	0.02301828
0.6354	0.02331844
0.6356	0.02427155
0.6358	0.02659594
0.636	0.02902108
0.6362	0.02848396
0.6364	0.02628513
0.6366	0.02556693
0.6368	0.02629545
0.637	0.02705711
0.6372	0.02711857
0.6374	0.02685592
0.6376	0.02618063
0.6378	0.02445524
0.638	0.0234671
0.6382	0.02280913
0.6384	0.02267201
0.6386	0.02248798
0.6388	0.02069874
0.639	0.01890318
0.6392	0.0187382
0.6394	0.01722207
0.6396	0.01551664
0.6398	0.0133394
0.64	0.01146194
0.6402	0.01155402
0.6404	0.009523205
0.6406	0.008221236
0.6408	0.007492712
0.641	0.006910302
0.6412	0.006912717
0.6414	0.005244281
0.6416	0.002333216
0.6418	-0.002089089
0.642	-0.005172672
0.6422	-0.004721727
0.6424	-0.005803394
0.6426	-0.007395993
0.6428	-0.009467975
0.643	-0.0129084
0.6432	-0.01483675
0.6434	-0.01648831
0.6436	-0.01686016
0.6438	-0.01825107
0.644	-0.01989711
0.6442	-0.02050941
0.6444	-0.02151483
0.6446	-0.02357324
0.6448	-0.02561885
0.645	-0.02681926
0.6452	-0.02725521
0.6454	-0.02827414
0.6456	-0.02863188
0.6458	-0.02850101
0.646	-0.02879401
0.6462	-0.02778716
0.6464	-0.02734827
0.6466	-0.02721275
0.6468	-0.02748889
0.647	-0.02876919
0.6472	-0.0296327
0.6474	-0.02973104
0.6476	-0.02931264
0.6478	-0.02915387
0.648	-0.02686101
0.6482	-0.02449236
0.6484	-0.0225276
0.6486	-0.0216476
0.6488	-0.02127018
0.649	-0.01851724
0.6492	-0.0177536
0.6494	-0.0170236
0.6496	-0.01551973
0.6498	-0.01320287
0.65	-0.01198439
0.6502	-0.01041299
0.6504	-0.008398957
0.6506	-0.007983081
0.6508	-0.007683742
0.651	-0.006034405
0.6512	-0.005301374
0.6514	-0.004978652
0.6516	-0.003509317
0.6518	-0.001101015
0.652	0.0005991078
0.6522	0.002002533
0.6524	0.003380416
0.6526	0.005514167
0.6528	0.006008603
0.653	0.007062597
0.6532	0.009426014
0.6534	0.01222324
0.6536	0.01340252
0.6538	0.01536832
0.654	0.01737052
0.6542	0.01881105
0.6544	0.02009056
0.6546	0.02204902
0.6548	0.02277087
0.655	0.02303267
0.6552	0.02364793
0.6554	0.02423979
0.6556	0.02378577
0.6558	0.02427729
0.656	0.02587241
0.6562	0.02796019
0.6564	0.02874773
0.6566	0.02744044
0.6568	0.02747548
0.657	0.02849861
0.6572	0.02743963
0.6574	0.02488199
0.6576	0.02380825
0.6578	0.02363104
0.658	0.02366216
0.6582	0.02260772
0.6584	0.02128534
0.6586	0.01984224
0.6588	0.01827382
0.659	0.01946202
0.6592	0.02062682
0.6594	0.01970985
0.6596	0.01791708
0.6598	0.01549515
0.66	0.01274734
0.6602	0.01061776
0.6604	0.01216939
0.6606	0.01301421
0.6608	0.01046882
0.661	0.009300684
0.6612	0.008221596
0.6614	0.006222273
0.6616	0.004753529
0.6618	0.002211204
0.662	-0.001389647
0.6622	-0.00274709
0.6624	-0.00332279
0.6626	-0.004910591
0.6628	-0.005977729
0.663	-0.006728411
0.6632	-0.009091555
0.6634	-0.01203083
0.6636	-0.01304509
0.6638	-0.01371705
0.664	-0.0142761
0.6642	-0.01671888
0.6644	-0.0202579
0.6646	-0.0221656
0.6648	-0.02343283
0.665	-0.02462976
0.6652	-0.02478332
0.6654	-0.02620255
0.6656	-0.02627026
0.6658	-0.02535246
0.666	-0.02505698
0.6662	-0.02544956
0.6664	-0.02694536
0.6666	-0.02802758
0.6668	-0.02765713
0.667	-0.0282701
0.6672	-0.02978458
0.6674	-0.0293572
0.6676	-0.02857965
0.6678	-0.02720417
0.668	-0.02637927
0.6682	-0.025044
0.6684	-0.02481439
0.6686	-0.02435376
0.6688	-0.02206363
0.669	-0.02002227
0.6692	-0.02039102
0.6694	-0.02005924
0.6696	-0.01803483
0.6698	-0.01612202
0.67	-0.01390178
0.6702	-0.01171022
0.6704	-0.01013671
0.6706	-0.006997488
0.6708	-0.006044743
0.671	-0.006680777
0.6712	-0.004204565
0.6714	-0.0009852453
0.6716	0.0009344321
0.6718	0.002973736
0.672	0.006185738
0.6722	0.006721715
0.6724	0.007377393
0.6726	0.008707282
0.6728	0.01127336
0.673	0.01341687
0.6732	0.01455919
0.6734	0.01767186
0.6736	0.02057163
0.6738	0.02271594
0.674	0.02425979
0.6742	0.02462781
0.6744	0.02435725
0.6746	0.02438964
0.6748	0.02495474
0.675	0.02535365
0.6752	0.02587393
0.6754	0.02694022
0.6756	0.02932037
0.6758	0.02998811
0.676	0.02897691
0.6762	0.0289593
0.6764	0.02921265
0.6766	0.0292288
0.6768	0.03001114
0.677	0.02999097
0.6772	0.02974743
0.6774	0.03060195
0.6776	0.02982918
0.6778	0.02733961
0.678	0.02511479
0.6782	0.02291482
0.6784	0.02102905
0.6786	0.01967459
0.6788	0.01955458
0.679	0.01833737
0.6792	0.01627673
0.6794	0.01502767
0.6796	0.01494257
0.6798	0.01498143
0.68	0.01369349
0.6802	0.01297828
0.6804	0.01134525
0.6806	0.007636667
0.6808	0.006097744
0.681	0.004524
0.6812	0.001947967
0.6814	3.895452e-5
0.6816	-0.0003418023
0.6818	-0.002327056
0.682	-0.004886313
0.6822	-0.006914909
0.6824	-0.01065212
0.6826	-0.01257267
0.6828	-0.01476738
0.683	-0.0167198
0.6832	-0.01792135
0.6834	-0.01928614
0.6836	-0.02192991
0.6838	-0.02325618
0.684	-0.02271876
0.6842	-0.02400118
0.6844	-0.02487864
0.6846	-0.02491214
0.6848	-0.02547362
0.685	-0.0268507
0.6852	-0.02674362
0.6854	-0.02539903
0.6856	-0.02385391
0.6858	-0.02507107
0.686	-0.0257395
0.6862	-0.02666404
0.6864	-0.02694678
0.6866	-0.02720585
0.6868	-0.02780602
0.687	-0.02863352
0.6872	-0.02753156
0.6874	-0.02554938
0.6876	-0.02518574
0.6878	-0.02637017
0.688	-0.02486682
0.6882	-0.0238449
0.6884	-0.02439525
0.6886	-0.02405311
0.6888	-0.02250275
0.689	-0.02221182
0.6892	-0.02020466
0.6894	-0.01854568
0.6896	-0.01718998
0.6898	-0.01608353
0.69	-0.01425737
0.6902	-0.01208458
0.6904	-0.01015708
0.6906	-0.00843797
0.6908	-0.006793121
0.691	-0.005071423
0.6912	-0.004160011
0.6914	-0.002657181
0.6916	-0.001358078
0.6918	0.002105846
0.692	0.005659746
0.6922	0.0080422
0.6924	0.01013206
0.6926	0.01256911
0.6928	0.01480144
0.693	0.01591082
0.6932	0.0179051
0.6934	0.01979417
0.6936	0.02095912
0.6938	0.02116979
0.694	0.02148346
0.6942	0.02331019
0.6944	0.02468648
0.6946	0.02529819
0.6948	0.02596487
0.695	0.02658054
0.6952	0.02612348
0.6954	0.02606519
0.6956	0.02543978
0.6958	0.02573084
0.696	0.02608066
0.6962	0.02869134
0.6964	0.02913409
0.6966	0.02826816
0.6968	0.02723015
0.697	0.0268492
0.6972	0.02693321
0.6974	0.02750989
0.6976	0.02776119
0.6978	0.02606927
0.698	0.0247428
0.6982	0.02329873
0.6984	0.02299351
0.6986	0.02239564
0.6988	0.02102504
0.699	0.01941417
0.6992	0.01960471
0.6994	0.01947068
0.6996	0.01884142
0.6998	0.01615486
0.7	0.01384292
0.7002	0.01195341
0.7004	0.009916344
0.7006	0.009554882
0.7008	0.008454291
0.701	0.00676314
0.7012	0.005455577
0.7014	0.003922588
0.7016	0.001859528
0.7018	-0.0005978615
0.702	-0.002319546
0.7022	-0.003737921
0.7024	-0.005400252
0.7026	-0.007656896
0.7028	-0.009241643
0.703	-0.01085051
0.7032	-0.0137635
0.7034	-0.01522391
0.7036	-0.01554847
0.7038	-0.0169685
0.704	-0.01861385
0.7042	-0.02019268
0.7044	-0.02211233
0.7046	-0.02207189
0.7048	-0.0233293
0.705	-0.02420739
0.7052	-0.02424816
0.7054	-0.0246553
0.7056	-0.02533163
0.7058	-0.02541778
0.706	-0.02572877
0.7062	-0.02675211
0.7064	-0.02744454
0.7066	-0.02790904
0.7068	-0.02707162
0.707	-0.02672263
0.7072	-0.02630458
0.7074	-0.0265228
0.7076	-0.02792384
0.7078	-0.02900481
0.708	-0.02822529
0.7082	-0.02692681
0.7084	-0.02543455
0.7086	-0.02483077
0.7088	-0.0233463
0.709	-0.02242015
0.7092	-0.02122075
0.7094	-0.0177587
0.7096	-0.01549131
0.7098	-0.01374766
0.71	-0.01438646
0.7102	-0.0132389
0.7104	-0.009436629
0.7106	-0.007027807
0.7108	-0.006431855
0.711	-0.004861976
0.7112	-0.00290251
0.7114	-0.0008695469
0.7116	0.0004641972
0.7118	0.001280269
0.712	0.002097069
0.7122	0.001651862
0.7124	0.003556248
0.7126	0.006538149
0.7128	0.009044326
0.713	0.0116566
0.7132	0.01219151
0.7134	0.01559851
0.7136	0.01867982
0.7138	0.02053475
0.714	0.02145014
0.7142	0.02179641
0.7144	0.02233903
0.7146	0.02312707
0.7148	0.02312479
0.715	0.0252286
0.7152	0.02568239
0.7154	0.02763157
0.7156	0.03002345
0.7158	0.03043637
0.716	0.02999416
0.7162	0.02980665
0.7164	0.02951667
0.7166	0.02950587
0.7168	0.02770276
0.717	0.02746772
0.7172	0.0283378
0.7174	0.02812976
0.7176	0.02797296
0.7178	0.02816313
0.718	0.02828038
0.7182	0.02757897
0.7184	0.02509781
0.7186	0.02362385
0.7188	0.02235466
0.719	0.02161705
0.7192	0.0207341
0.7194	0.01825484
0.7196	0.0167937
0.7198	0.016
0.72	0.01406447
0.7202	0.01134972
0.7204	0.008289654
0.7206	0.006109877
0.7208	0.004101065
0.721	0.003882233
0.7212	0.002395875
0.7214	6.4858e-6
0.7216	-0.001356212
0.7218	-0.002653092
0.722	-0.002826513
0.7222	-0.003920298
0.7224	-0.005210052
0.7226	-0.006559316
0.7228	-0.01046049
0.723	-0.01228331
0.7232	-0.01305707
0.7234	-0.01451387
0.7236	-0.01516837
0.7238	-0.01575354
0.724	-0.01655532
0.7242	-0.01858377
0.7244	-0.02054884
0.7246	-0.02214868
0.7248	-0.02475264
0.725	-0.02592748
0.7252	-0.02619698
0.7254	-0.02696639
0.7256	-0.02858547
0.7258	-0.02937522
0.726	-0.02917283
0.7262	-0.02856897
0.7264	-0.02707813
0.7266	-0.02687412
0.7268	-0.02681664
0.727	-0.02793074
0.7272	-0.02878822
0.7274	-0.02826503
0.7276	-0.02898466
0.7278	-0.02792637
0.728	-0.02630753
0.7282	-0.02529621
0.7284	-0.02508657
0.7286	-0.02431587
0.7288	-0.02334442
0.729	-0.0236276
0.7292	-0.02271549
0.7294	-0.02083614
0.7296	-0.01870818
0.7298	-0.01615395
0.73	-0.01392206
0.7302	-0.012205
0.7304	-0.009060129
0.7306	-0.007410108
0.7308	-0.005936857
0.731	-0.005378305
0.7312	-0.003765645
0.7314	-0.002150472
0.7316	-0.0005843998
0.7318	0.0003037057
0.732	0.001714903
0.7322	0.004051451
0.7324	0.005798392
0.7326	0.007517516
0.7328	0.008941456
0.733	0.01022066
0.7332	0.01219856
0.7334	0.01396297
0.7336	0.01656994
0.7338	0.01762067
0.734	0.01818206
0.7342	0.02006115
0.7344	0.02233122
0.7346	0.0234957
0.7348	0.02298325
0.735	0.02324842
0.7352	0.02447958
0.7354	0.02618455
0.7356	0.02632543
0.7358	0.02791776
0.736	0.02789433
0.7362	0.02661639
0.7364	0.02542797
0.7366	0.02654422
0.7368	0.02859273
0.737	0.02978322
0.7372	0.02828177
0.7374	0.02585599
0.7376	0.0266585
0.7378	0.02825144
0.738	0.02756925
0.7382	0.02548764
0.7384	0.02406367
0.7386	0.02295372
0.7388	0.02291198
0.739	0.02227185
0.7392	0.01981536
0.7394	0.01828151
0.7396	0.01745003
0.7398	0.01512853
0.74	0.01233649
0.7402	0.009930759
0.7404	0.009842422
0.7406	0.007071666
0.7408	0.004947862
0.741	0.004831651
0.7412	0.003986066
0.7414	0.00188771
0.7416	-0.0005316458
0.7418	-0.001834723
0.742	-0.002683592
0.7422	-0.005142772
0.7424	-0.008329888
0.7426	-0.01189287
0.7428	-0.0124556
0.743	-0.01399193
0.7432	-0.01500865
0.7434	-0.01563337
0.7436	-0.0180794
0.7438	-0.02039048
0.744	-0.02109443
0.7442	-0.02160299
0.7444	-0.02231595
0.7446	-0.02294411
0.7448	-0.02405044
0.745	-0.02483211
0.7452	-0.02542918
0.7454	-0.02433624
0.7456	-0.02528446
0.7458	-0.02753936
0.746	-0.02842371
0.7462	-0.02824056
0.7464	-0.02723538
0.7466	-0.02642002
0.7468	-0.02757782
0.747	-0.02814471
0.7472	-0.02881443
0.7474	-0.02922336
0.7476	-0.02884648
0.7478	-0.02676973
0.748	-0.02531647
0.7482	-0.02520427
0.7484	-0.0245651
0.7486	-0.02316001
0.7488	-0.02233257
0.749	-0.02166142
0.7492	-0.02056307
0.7494	-0.01965195
0.7496	-0.0188536
0.7498	-0.01697781
0.75	-0.01563046
0.7502	-0.01428726
0.7504	-0.01235835
0.7506	-0.009760356
0.7508	-0.006006744
0.751	-0.003969267
0.7512	-0.003078907
0.7514	-0.001512582
0.7516	9.69298e-5
0.7518	0.003502558
0.752	0.005721009
0.7522	0.009022504
0.7524	0.01016881
0.7526	0.01095815
0.7528	0.01209367
0.753	0.0138101
0.7532	0.01429282
0.7534	0.01516615
0.7536	0.01836966
0.7538	0.01852998
0.754	0.02089643
0.7542	0.02318067
0.7544	0.02449175
0.7546	0.02669556
0.7548	0.02675417
0.755	0.02824231
0.7552	0.02910759
0.7554	0.02969327
0.7556	0.03133646
0.7558	0.03073064
0.756	0.0304649
0.7562	0.03039305
0.7564	0.02829156
0.7566	0.02710144
0.7568	0.02659161
0.757	0.02553802
0.7572	0.02578395
0.7574	0.0266008
0.7576	0.02527702
0.7578	0.0256437
0.758	0.02622946
0.7582	0.0249341
0.7584	0.02415203
0.7586	0.02428179
0.7588	0.0234681
0.759	0.02194964
0.7592	0.02006312
0.7594	0.01792393
0.7596	0.01536568
0.7598	0.01384739
0.76	0.0132684
0.7602	0.01249942
0.7604	0.01105495
0.7606	0.007898315
0.7608	0.005153533
0.761	0.002625968
0.7612	0.001383008
0.7614	-0.0003622099
0.7616	-0.002080307
0.7618	-0.002712785
0.762	-0.004624534
0.7622	-0.005649063
0.7624	-0.006874891
0.7626	-0.009576269
0.7628	-0.009906739
0.763	-0.01099742
0.7632	-0.01304007
0.7634	-0.01635213
0.7636	-0.01955131
0.7638	-0.02045101
0.764	-0.02202687
0.7642	-0.02224556
0.7644	-0.02240639
0.7646	-0.02270817
0.7648	-0.02232616
0.765	-0.02218199
0.7652	-0.02217668
0.7654	-0.02330161
0.7656	-0.02381689
0.7658	-0.02525175
0.766	-0.02467522
0.7662	-0.02422606
0.7664	-0.02575435
0.7666	-0.02676353
0.7668	-0.02794023
0.767	-0.02835048
0.7672	-0.02795047
0.7674	-0.02732801
0.7676	-0.02586688
0.7678	-0.02545951
0.768	-0.02473957
0.7682	-0.02338202
0.7684	-0.02182924
0.7686	-0.02020866
0.7688	-0.01867305
0.769	-0.01790402
0.7692	-0.01724057
0.7694	-0.01455584
0.7696	-0.01197319
0.7698	-0.01080117
0.77	-0.01002078
0.7702	-0.009981615
0.7704	-0.009166176
0.7706	-0.009129808
0.7708	-0.009475625
0.771	-0.007658203
0.7712	-0.007121517
0.7714	-0.006064223
0.7716	-0.002666239
0.7718	0.0007164048
0.772	0.002672039
0.7722	0.005187726
0.7724	0.008344006
0.7726	0.01044127
0.7728	0.01244587
0.773	0.01271512
0.7732	0.015303
0.7734	0.01732959
0.7736	0.01719382
0.7738	0.0171861
0.774	0.01751433
0.7742	0.01779702
0.7744	0.0195296
0.7746	0.02188059
0.7748	0.02352447
0.775	0.02426397
0.7752	0.02374974
0.7754	0.02549957
0.7756	0.02593092
0.7758	0.02614524
0.776	0.02628052
0.7762	0.02598791
0.7764	0.02676698
0.7766	0.02727995
0.7768	0.02821614
0.777	0.02770658
0.7772	0.02782653
0.7774	0.0280539
0.7776	0.02747344
0.7778	0.02647447
0.778	0.0237748
0.7782	0.02094196
0.7784	0.02070799
0.7786	0.02151366
0.7788	0.02147736
0.779	0.0200838
0.7792	0.01825106
0.7794	0.01574846
0.7796	0.0159445
0.7798	0.01597151
0.78	0.01537189
0.7802	0.01369608
0.7804	0.01240871
0.7806	0.01012313
0.7808	0.007646233
0.781	0.006191855
0.7812	0.005363022
0.7814	0.002682385
0.7816	-0.0009291893
0.7818	-0.001651338
0.782	-0.002033337
0.7822	-0.004527692
0.7824	-0.006473797
0.7826	-0.007097441
0.7828	-0.007199762
0.783	-0.009214191
0.7832	-0.01146785
0.7834	-0.01378454
0.7836	-0.01675941
0.7838	-0.01770147
0.784	-0.01944735
0.7842	-0.0224502
0.7844	-0.02370286
0.7846	-0.02443161
0.7848	-0.02431514
0.785	-0.02399742
0.7852	-0.02432253
0.7854	-0.02541808
0.7856	-0.02653227
0.7858	-0.02747352
0.786	-0.02830288
0.7862	-0.02897641
0.7864	-0.02933027
0.7866	-0.03067639
0.7868	-0.03012591
0.787	-0.0284288
0.7872	-0.02835968
0.7874	-0.02912257
0.7876	-0.03049262
0.7878	-0.02893338
0.788	-0.02712062
0.7882	-0.02507809
0.7884	-0.02436648
0.7886	-0.02321159
0.7888	-0.02273642
0.789	-0.02169892
0.7892	-0.02115841
0.7894	-0.01905735
0.7896	-0.0162232
0.7898	-0.01215179
0.79	-0.009696382
0.7902	-0.008677503
0.7904	-0.005967672
0.7906	-0.004890644
0.7908	-0.004307005
0.791	-0.002648405
0.7912	-0.0009364311
0.7914	0.0003364189
0.7916	0.001140666
0.7918	0.003229308
0.792	0.005893142
0.7922	0.007595479
0.7924	0.00924824
0.7926	0.01127467
0.7928	0.01206994
0.793	0.01380182
0.7932	0.01469363
0.7934	0.01570147
0.7936	0.016685
0.7938	0.01724699
0.794	0.01842871
0.7942	0.01968655
0.7944	0.02210081
0.7946	0.02119797
0.7948	0.02244755
0.795	0.02509185
0.7952	0.02659641
0.7954	0.02732815
0.7956	0.02678108
0.7958	0.02692983
0.796	0.02745944
0.7962	0.02696463
0.7964	0.02603739
0.7966	0.02713171
0.7968	0.02613239
0.797	0.02357191
0.7972	0.02330977
0.7974	0.02356168
0.7976	0.02422927
0.7978	0.02365354
0.798	0.02248592
0.7982	0.02113578
0.7984	0.02022412
0.7986	0.02123836
0.7988	0.02276268
0.799	0.02145504
0.7992	0.01972355
0.7994	0.01809057
0.7996	0.01616566
0.7998	0.01484146
0.8	0.01463536
0.8002	0.01340168
0.8004	0.01223029
0.8006	0.01081932
0.8008	0.008190471
0.801	0.007129735
0.8012	0.005051339
0.8014	0.004117626
0.8016	0.001340342
0.8018	-0.001775782
0.802	-0.003834833
0.8022	-0.005274864
0.8024	-0.006556485
0.8026	-0.008734053
0.8028	-0.01119185
0.803	-0.01293377
0.8032	-0.01515231
0.8034	-0.01716435
0.8036	-0.01596212
0.8038	-0.01667078
0.804	-0.019168
0.8042	-0.02238011
0.8044	-0.0239101
0.8046	-0.02352505
0.8048	-0.02525299
0.805	-0.02624254
0.8052	-0.02611398
0.8054	-0.02692995
0.8056	-0.02723636
0.8058	-0.02734812
0.806	-0.02773328
0.8062	-0.02814254
0.8064	-0.02796217
0.8066	-0.02869668
0.8068	-0.02771878
0.807	-0.02687045
0.8072	-0.02775773
0.8074	-0.02761773
0.8076	-0.02674428
0.8078	-0.0266922
0.808	-0.02657511
0.8082	-0.02703076
0.8084	-0.0257989
0.8086	-0.02355955
0.8088	-0.01927204
0.809	-0.01594069
0.8092	-0.01530585
0.8094	-0.01366814
0.8096	-0.01193093
0.8098	-0.0104776
0.81	-0.009007559
0.8102	-0.006501409
0.8104	-0.005240419
0.8106	-0.003527363
0.8108	-0.00260131
0.811	-0.002794326
0.8112	-0.002300332
0.8114	-0.001339285
0.8116	-0.0004560018
0.8118	0.0009445202
0.812	0.003751549
0.8122	0.006084888
0.8124	0.008507776
0.8126	0.01015502
0.8128	0.01219761
0.813	0.01338249
0.8132	0.01424309
0.8134	0.01597716
0.8136	0.01806314
0.8138	0.01906228
0.814	0.01957401
0.8142	0.02125894
0.8144	0.02317091
0.8146	0.02455503
0.8148	0.0239484
0.815	0.02479245
0.8152	0.02483612
0.8154	0.02511816
0.8156	0.02696387
0.8158	0.02724035
0.816	0.02914296
0.8162	0.02960042
0.8164	0.02883145
0.8166	0.02936886
0.8168	0.028441
0.817	0.02866741
0.8172	0.02919439
0.8174	0.02642433
0.8176	0.02828527
0.8178	0.02883055
0.818	0.02742575
0.8182	0.02732396
0.8184	0.02531029
0.8186	0.02314012
0.8188	0.02357722
0.819	0.02294302
0.8192	0.02022626
0.8194	0.01871529
0.8196	0.01633557
0.8198	0.01470673
0.82	0.01316325
0.8202	0.01169956
0.8204	0.009711038
0.8206	0.007887512
0.8208	0.004925012
0.821	0.003676668
0.8212	0.002968894
0.8214	-0.0009674718
0.8216	-0.004037811
0.8218	-0.005922056
0.822	-0.008035288
0.8222	-0.008759513
0.8224	-0.01060699
0.8226	-0.01177119
0.8228	-0.01278029
0.823	-0.01405791
0.8232	-0.01658153
0.8234	-0.01889935
0.8236	-0.01970199
0.8238	-0.020591
0.824	-0.02275857
0.8242	-0.02402522
0.8244	-0.02432452
0.8246	-0.02479171
0.8248	-0.02357107
0.825	-0.02468651
0.8252	-0.02555291
0.8254	-0.02625277
0.8256	-0.02910348
0.8258	-0.02891157
0.826	-0.02811593
0.8262	-0.02702872
0.8264	-0.02735713
0.8266	-0.02886703
0.8268	-0.02867075
0.827	-0.02856906
0.8272	-0.02874245
0.8274	-0.02807814
0.8276	-0.0278391
0.8278	-0.02663414
0.828	-0.02528401
0.8282	-0.02409253
0.8284	-0.02392104
0.8286	-0.0229075
0.8288	-0.02196769
0.829	-0.02276062
0.8292	-0.02263339
0.8294	-0.01953725
0.8296	-0.01651595
0.8298	-0.0142064
0.83	-0.01278519
0.8302	-0.01100866
0.8304	-0.008311198
0.8306	-0.006246255
0.8308	-0.004773587
0.831	-0.002676986
0.8312	-0.001503938
0.8314	-0.0009355021
0.8316	0.001612306
0.8318	0.003842658
0.832	0.00502669
0.8322	0.004654592
0.8324	0.006034323
0.8326	0.008101093
0.8328	0.009267464
0.833	0.01113904
0.8332	0.0128337
0.8334	0.01490969
0.8336	0.01610434
0.8338	0.01757196
0.834	0.0188704
0.8342	0.02079722
0.8344	0.02330502
0.8346	0.02442011
0.8348	0.02439138
0.835	0.02484383
0.8352	0.02504629
0.8354	0.02452265
0.8356	0.02485069
0.8358	0.02593773
0.836	0.02820824
0.8362	0.03012758
0.8364	0.0293167
0.8366	0.02819402
0.8368	0.02887597
0.837	0.02862319
0.8372	0.02831784
0.8374	0.02853441
0.8376	0.02820737
0.8378	0.02699728
0.838	0.02464628
0.8382	0.02498229
0.8384	0.02440941
0.8386	0.02408984
0.8388	0.02393349
0.839	0.02314848
0.8392	0.02242046
0.8394	0.0205809
0.8396	0.01860251
0.8398	0.01585544
0.84	0.01389634
0.8402	0.01197645
0.8404	0.01121184
0.8406	0.01037207
0.8408	0.009108737
0.841	0.007759169
0.8412	0.006054194
0.8414	0.00383349
0.8416	0.0004787441
0.8418	-0.001308741
0.842	-0.002701434
0.8422	-0.003674238
0.8424	-0.005197814
0.8426	-0.006496149
0.8428	-0.007133093
0.843	-0.008521133
0.8432	-0.01198213
0.8434	-0.01435823
0.8436	-0.01534645
0.8438	-0.01736121
0.844	-0.0179793
0.8442	-0.02034521
0.8444	-0.02252205
0.8446	-0.02389156
0.8448	-0.02514212
0.845	-0.02540796
0.8452	-0.02455759
0.8454	-0.02541945
0.8456	-0.02722043
0.8458	-0.02593007
0.846	-0.02924393
0.8462	-0.03014833
0.8464	-0.02886182
0.8466	-0.02805521
0.8468	-0.02689183
0.847	-0.02704253
0.8472	-0.02785179
0.8474	-0.02948859
0.8476	-0.0304295
0.8478	-0.02988366
0.848	-0.02871892
0.8482	-0.0278425
0.8484	-0.02638287
0.8486	-0.02470761
0.8488	-0.02197025
0.849	-0.02093028
0.8492	-0.02068627
0.8494	-0.01779416
0.8496	-0.0152583
0.8498	-0.01466873
0.85	-0.01381344
0.8502	-0.01218356
0.8504	-0.01112245
0.8506	-0.009919393
0.8508	-0.00864036
0.851	-0.006848008
0.8512	-0.004090155
0.8514	-0.002165243
0.8516	0.001186599
0.8518	0.003460498
0.852	0.006128346
0.8522	0.009536919
0.8524	0.01153036
0.8526	0.01377373
0.8528	0.01580905
0.853	0.01705755
0.8532	0.01948966
0.8534	0.02100593
0.8536	0.02248343
0.8538	0.0227729
0.854	0.02384529
0.8542	0.02371443
0.8544	0.02443676
0.8546	0.02555911
0.8548	0.02657583
0.855	0.02813396
0.8552	0.02962348
0.8554	0.03061128
0.8556	0.03005521
0.8558	0.0292312
0.856	0.02814078
0.8562	0.02579661
0.8564	0.02617096
0.8566	0.02723741
0.8568	0.0274439
0.857	0.02773354
0.8572	0.02834192
0.8574	0.02853292
0.8576	0.02866088
0.8578	0.02951249
0.858	0.02849946
0.8582	0.02427388
0.8584	0.02188689
0.8586	0.01897245
0.8588	0.01601546
0.859	0.01346951
0.8592	0.01172396
0.8594	0.01016699
0.8596	0.008475735
0.8598	0.006360402
0.86	0.002738732
0.8602	0.001276715
0.8604	-8.906264e-5
0.8606	-0.0003832096
0.8608	-0.000309738
0.861	-0.001725113
0.8612	-0.003413912
0.8614	-0.004597716
0.8616	-0.005783192
0.8618	-0.00527848
0.862	-0.005595897
0.8622	-0.00829492
0.8624	-0.01111693
0.8626	-0.01138225
0.8628	-0.01085229
0.863	-0.01286108
0.8632	-0.01631788
0.8634	-0.01862865
0.8636	-0.01852833
0.8638	-0.01875437
0.864	-0.02053023
0.8642	-0.02226007
0.8644	-0.02338831
0.8646	-0.02334189
0.8648	-0.02558124
0.865	-0.0276695
0.8652	-0.02778351
0.8654	-0.02701797
0.8656	-0.02471877
0.8658	-0.02364496
0.866	-0.02407511
0.8662	-0.02477769
0.8664	-0.02601113
0.8666	-0.02603613
0.8668	-0.026533
0.867	-0.02678561
0.8672	-0.02677316
0.8674	-0.02677824
0.8676	-0.02573147
0.8678	-0.02569236
0.868	-0.02444331
0.8682	-0.02130822
0.8684	-0.0205262
0.8686	-0.02010957
0.8688	-0.01883939
0.869	-0.01770498
0.8692	-0.01770242
0.8694	-0.0162805
0.8696	-0.01519708
0.8698	-0.01299461
0.87	-0.01030196
0.8702	-0.007601936
0.8704	-0.006437533
0.8706	-0.006427861
0.8708	-0.005792825
0.871	-0.005131038
0.8712	-0.00306128
0.8714	-0.0003624977
0.8716	0.001941408
0.8718	0.006350104
0.872	0.008631646
0.8722	0.008588344
0.8724	0.00980986
0.8726	0.01149766
0.8728	0.01406294
0.873	0.01739131
0.8732	0.01866218
0.8734	0.01910889
0.8736	0.01942346
0.8738	0.02089749
0.874	0.02269549
0.8742	0.02536379
0.8744	0.02651113
0.8746	0.02603636
0.8748	0.02658952
0.875	0.0283486
0.8752	0.03012448
0.8754	0.02943012
0.8756	0.02912409
0.8758	0.02875121
0.876	0.03015525
0.8762	0.03031191
0.8764	0.02939742
0.8766	0.02991772
0.8768	0.02889162
0.877	0.02736792
0.8772	0.02769992
0.8774	0.02847134
0.8776	0.02823251
0.8778	0.02685329
0.878	0.02573008
0.8782	0.02528369
0.8784	0.02394077
0.8786	0.02175565
0.8788	0.02018194
0.879	0.01811875
0.8792	0.01640814
0.8794	0.01500218
0.8796	0.01306046
0.8798	0.01020964
0.88	0.007964736
0.8802	0.007874484
0.8804	0.006908199
0.8806	0.005792529
0.8808	0.003654147
0.881	0.001663897
0.8812	-0.0002980783
0.8814	-0.001799643
0.8816	-0.00113142
0.8818	-0.002550826
0.882	-0.004627247
0.8822	-0.007120314
0.8824	-0.008320642
0.8826	-0.009624137
0.8828	-0.0129142
0.883	-0.01543041
0.8832	-0.01730833
0.8834	-0.01917911
0.8836	-0.02066755
0.8838	-0.02099856
0.884	-0.02257655
0.8842	-0.02462736
0.8844	-0.02622665
0.8846	-0.02750414
0.8848	-0.02744823
0.885	-0.02693744
0.8852	-0.02733552
0.8854	-0.02836423
0.8856	-0.02987341
0.8858	-0.02991422
0.886	-0.02873674
0.8862	-0.02885674
0.8864	-0.0281515
0.8866	-0.02955133
0.8868	-0.03102642
0.887	-0.02937653
0.8872	-0.02782641
0.8874	-0.02637993
0.8876	-0.02511205
0.8878	-0.02400937
0.888	-0.02356978
0.8882	-0.02491352
0.8884	-0.02542065
0.8886	-0.02380923
0.8888	-0.02344115
0.889	-0.02268101
0.8892	-0.02142578
0.8894	-0.01837152
0.8896	-0.01545766
0.8898	-0.01472953
0.89	-0.01401332
0.8902	-0.01297345
0.8904	-0.01029421
0.8906	-0.007774883
0.8908	-0.005800292
0.891	-0.003755988
0.8912	-0.003027961
0.8914	-0.001916194
0.8916	0.000435528
0.8918	0.002489798
0.892	0.004624332
0.8922	0.006257862
0.8924	0.008059064
0.8926	0.01182505
0.8928	0.01371561
0.893	0.01403658
0.8932	0.01519558
0.8934	0.01797698
0.8936	0.01900183
0.8938	0.02118602
0.894	0.02214462
0.8942	0.02202227
0.8944	0.02352851
0.8946	0.02576103
0.8948	0.02670324
0.895	0.02722242
0.8952	0.02929138
0.8954	0.02947194
0.8956	0.02835103
0.8958	0.02999676
0.896	0.0319047
0.8962	0.03206116
0.8964	0.0321263
0.8966	0.03010513
0.8968	0.02931216
0.897	0.03075661
0.8972	0.03148931
0.8974	0.03078272
0.8976	0.0282063
0.8978	0.02796889
0.898	0.02715919
0.8982	0.02547063
0.8984	0.02451551
0.8986	0.02354318
0.8988	0.0233911
0.899	0.02233085
0.8992	0.0202176
0.8994	0.01911536
0.8996	0.01634837
0.8998	0.01480996
0.9	0.01293235
0.9002	0.01133636
0.9004	0.01074653
0.9006	0.009485677
0.9008	0.007977292
0.901	0.006657828
0.9012	0.004369518
0.9014	0.002529957
0.9016	5.37381e-6
0.9018	-0.002437201
0.902	-0.004333435
0.9022	-0.00637174
0.9024	-0.007326623
0.9026	-0.008769297
0.9028	-0.01209614
0.903	-0.01290657
0.9032	-0.01449444
0.9034	-0.01658181
0.9036	-0.01752722
0.9038	-0.0189634
0.904	-0.02211031
0.9042	-0.02509508
0.9044	-0.02719778
0.9046	-0.02802395
0.9048	-0.02826843
0.905	-0.02821635
0.9052	-0.02899956
0.9054	-0.03090406
0.9056	-0.03077617
0.9058	-0.03067653
0.906	-0.03171457
0.9062	-0.03159061
0.9064	-0.03240329
0.9066	-0.03262789
0.9068	-0.03252674
0.907	-0.03226356
0.9072	-0.03065449
0.9074	-0.03065361
0.9076	-0.03061898
0.9078	-0.02992542
0.908	-0.02802801
0.9082	-0.02583739
0.9084	-0.02535437
0.9086	-0.02336971
0.9088	-0.02230709
0.909	-0.02316871
0.9092	-0.02157853
0.9094	-0.0186986
0.9096	-0.01631441
0.9098	-0.01290953
0.91	-0.0100941
0.9102	-0.009438276
0.9104	-0.007410414
0.9106	-0.006743401
0.9108	-0.00531145
0.911	-0.003329377
0.9112	-0.002102559
0.9114	-0.000132978
0.9116	0.001040859
0.9118	0.00318537
0.912	0.005060742
0.9122	0.006414499
0.9124	0.006797269
0.9126	0.007958276
0.9128	0.01166036
0.913	0.0147692
0.9132	0.01506623
0.9134	0.01611305
0.9136	0.01784011
0.9138	0.01960052
0.914	0.0200469
0.9142	0.02105833
0.9144	0.02385735
0.9146	0.02507599
0.9148	0.0245067
0.915	0.02482127
0.9152	0.02586877
0.9154	0.02653335
0.9156	0.02764535
0.9158	0.02865627
0.916	0.03063655
0.9162	0.03052159
0.9164	0.02929239
0.9166	0.03025016
0.9168	0.02981976
0.917	0.02937792
0.9172	0.02953541
0.9174	0.02958706
0.9176	0.02919928
0.9178	0.02697781
0.918	0.02573653
0.9182	0.02561691
0.9184	0.02426142
0.9186	0.02412669
0.9188	0.02381644
0.919	0.02379404
0.9192	0.022487
0.9194	0.01972421
0.9196	0.01797185
0.9198	0.01510033
0.92	0.01198702
0.9202	0.01081112
0.9204	0.009360773
0.9206	0.007425359
0.9208	0.007079484
0.921	0.004712696
0.9212	0.001716726
0.9214	0.0007689947
0.9216	-0.0002442554
0.9218	-0.0003077433
0.922	-0.001602188
0.9222	-0.004440086
0.9224	-0.007408822
0.9226	-0.009702261
0.9228	-0.01262986
0.923	-0.01398844
0.9232	-0.01432099
0.9234	-0.01538162
0.9236	-0.01561894
0.9238	-0.01726124
0.924	-0.01897308
0.9242	-0.02185461
0.9244	-0.02472198
0.9246	-0.02526714
0.9248	-0.02648703
0.925	-0.02662312
0.9252	-0.02799659
0.9254	-0.02908022
0.9256	-0.03000012
0.9258	-0.02990529
0.926	-0.03088738
0.9262	-0.03174758
0.9264	-0.03096708
0.9266	-0.03095893
0.9268	-0.03240297
0.927	-0.03169579
0.9272	-0.02992961
0.9274	-0.02996089
0.9276	-0.02874704
0.9278	-0.02759514
0.928	-0.02629807
0.9282	-0.02475378
0.9284	-0.02399828
0.9286	-0.02343462
0.9288	-0.0225142
0.929	-0.02116352
0.9292	-0.02004929
0.9294	-0.01895334
0.9296	-0.01730546
0.9298	-0.01540054
0.93	-0.01308632
0.9302	-0.009432466
0.9304	-0.007805372
0.9306	-0.006832909
0.9308	-0.005103057
0.931	-0.003434766
0.9312	-0.001816723
0.9314	-0.0001387878
0.9316	0.00228341
0.9318	0.003460635
0.932	0.004376345
0.9322	0.006000475
0.9324	0.00700792
0.9326	0.009905495
0.9328	0.01206874
0.933	0.01297296
0.9332	0.01400479
0.9334	0.01621346
0.9336	0.01686677
0.9338	0.01922636
0.934	0.02164244
0.9342	0.02235197
0.9344	0.02186145
0.9346	0.02223715
0.9348	0.02289137
0.935	0.02411574
0.9352	0.02591921
0.9354	0.02675353
0.9356	0.02759303
0.9358	0.02717688
0.936	0.02807553
0.9362	0.028014
0.9364	0.02750135
0.9366	0.02897023
0.9368	0.0293888
0.937	0.03038029
0.9372	0.03055494
0.9374	0.03083267
0.9376	0.03031379
0.9378	0.02858922
0.938	0.02612669
0.9382	0.02495992
0.9384	0.02506029
0.9386	0.02403881
0.9388	0.02221822
0.939	0.02171624
0.9392	0.02084119
0.9394	0.01886273
0.9396	0.01709917
0.9398	0.01571172
0.94	0.0152214
0.9402	0.01519113
0.9404	0.01373256
0.9406	0.009718416
0.9408	0.007690011
0.941	0.006348726
0.9412	0.004718174
0.9414	0.004072819
0.9416	0.002367282
0.9418	0.0003980986
0.942	-0.002686873
0.9422	-0.00494822
0.9424	-0.006156382
0.9426	-0.007440863
0.9428	-0.01019006
0.943	-0.01328659
0.9432	-0.01601035
0.9434	-0.01699864
0.9436	-0.01661854
0.9438	-0.01877553
0.944	-0.02185935
0.9442	-0.02478218
0.9444	-0.02717779
0.9446	-0.02718568
0.9448	-0.02772595
0.945	-0.0275561
0.9452	-0.02774935
0.9454	-0.02983166
0.9456	-0.03023681
0.9458	-0.03005017
0.946	-0.02920539
0.9462	-0.02812887
0.9464	-0.02891736
0.9466	-0.03086147
0.9468	-0.03077337
0.947	-0.03041411
0.9472	-0.03051772
0.9474	-0.03025141
0.9476	-0.02982156
0.9478	-0.02958303
0.948	-0.02896294
0.9482	-0.02857691
0.9484	-0.02649137
0.9486	-0.02447827
0.9488	-0.02476596
0.949	-0.02247864
0.9492	-0.01997812
0.9494	-0.01742346
0.9496	-0.01575759
0.9498	-0.01240551
0.95	-0.01086031
0.9502	-0.01014122
0.9504	-0.007285801
0.9506	-0.005978323
0.9508	-0.003652481
0.951	-0.0023417
0.9512	-0.002060001
0.9514	-0.001095446
0.9516	0.001140941
0.9518	0.003267675
0.952	0.005141014
0.9522	0.008704553
0.9524	0.01034553
0.9526	0.01214443
0.9528	0.01470984
0.953	0.01663644
0.9532	0.0173428
0.9534	0.01932151
0.9536	0.02026442
0.9538	0.02134794
0.954	0.02254637
0.9542	0.02210222
0.9544	0.02336522
0.9546	0.02556749
0.9548	0.02605469
0.955	0.02697144
0.9552	0.02947885
0.9554	0.02897047
0.9556	0.02873608
0.9558	0.02969002
0.956	0.02954
0.9562	0.02991614
0.9564	0.02828681
0.9566	0.02654555
0.9568	0.02729899
0.957	0.02760109
0.9572	0.026185
0.9574	0.02632502
0.9576	0.02672851
0.9578	0.02795735
0.958	0.02790702
0.9582	0.02579701
0.9584	0.02519112
0.9586	0.02509278
0.9588	0.02390019
0.959	0.02323473
0.9592	0.01968192
0.9594	0.01665598
0.9596	0.01639332
0.9598	0.01509633
0.96	0.01426095
0.9602	0.01188564
0.9604	0.01077588
0.9606	0.008640422
0.9608	0.007248252
0.961	0.006888865
0.9612	0.005789569
0.9614	0.002587343
0.9616	0.0007978377
0.9618	-0.0004817078
0.962	-0.001906264
0.9622	-0.004191486
0.9624	-0.00665124
0.9626	-0.008343799
0.9628	-0.00963873
0.963	-0.01215141
0.9632	-0.01455884
0.9634	-0.01598877
0.9636	-0.01825383
0.9638	-0.02037912
0.964	-0.0227096
0.9642	-0.0263449
0.9644	-0.02732763
0.9646	-0.02637969
0.9648	-0.02601907
0.965	-0.02654604
0.9652	-0.02660262
0.9654	-0.02693105
0.9656	-0.02715117
0.9658	-0.02805813
0.966	-0.02856032
0.9662	-0.02889693
0.9664	-0.02836283
0.9666	-0.02814603
0.9668	-0.02846759
0.967	-0.02787992
0.9672	-0.02635063
0.9674	-0.02577697
0.9676	-0.02525637
0.9678	-0.02696584
0.968	-0.02559099
0.9682	-0.02386953
0.9684	-0.02457967
0.9686	-0.02265876
0.9688	-0.02070001
0.969	-0.01869583
0.9692	-0.01800278
0.9694	-0.0178721
0.9696	-0.01505089
0.9698	-0.01235357
0.97	-0.0112
0.9702	-0.01019588
0.9704	-0.008536744
0.9706	-0.007467253
0.9708	-0.007293344
0.971	-0.00544342
0.9712	-0.00399411
0.9714	-0.003478342
0.9716	-0.001495521
0.9718	0.0001809245
0.972	0.001920832
0.9722	0.004690359
0.9724	0.006888847
0.9726	0.008798519
0.9728	0.01129539
0.973	0.01325965
0.9732	0.0153765
0.9734	0.01653509
0.9736	0.01843394
0.9738	0.02107479
0.974	0.02354758
0.9742	0.024749
0.9744	0.02642027
0.9746	0.02810549
0.9748	0.02923769
0.975	0.02937399
0.9752	0.02993825
0.9754	0.03178253
0.9756	0.03332421
0.9758	0.03403052
0.976	0.03310737
0.9762	0.03407138
0.9764	0.03501997
0.9766	0.03544099
0.9768	0.03487476
0.977	0.03319084
0.9772	0.03197381
0.9774	0.03191175
0.9776	0.02990613
0.9778	0.02706324
0.978	0.02545208
0.9782	0.02250198
0.9784	0.01991918
0.9786	0.01649061
0.9788	0.01411849
0.979	0.01388107
0.9792	0.01215117
0.9794	0.009720588
0.9796	0.006782445
0.9798	0.003212585
0.98	0.0003045485
0.9802	-0.002064822
0.9804	-0.003286386
0.9806	-0.004457104
0.9808	-0.004999595
0.981	-0.00381425
0.9812	-0.002231986
0.9814	-0.002853124
0.9816	-0.004368554
0.9818	-0.007637559
0.982	-0.01042413
0.9822	-0.01090105
0.9824	-0.01180926
0.9826	-0.01273806
0.9828	-0.014468
0.983	-0.01477634
0.9832	-0.01605391
0.9834	-0.01724561
0.9836	-0.01776115
0.9838	-0.01934529
0.984	-0.01998666
0.9842	-0.02052082
0.9844	-0.02264417
0.9846	-0.02431927
0.9848	-0.02538861
0.985	-0.0256227
0.9852	-0.02670578
0.9854	-0.02771544
0.9856	-0.02879156
0.9858	-0.02879341
0.986	-0.0288614
0.9862	-0.02712234
0.9864	-0.02618116
0.9866	-0.02694638
0.9868	-0.02833969
0.987	-0.02764357
0.9872	-0.02662596
0.9874	-0.02530957
0.9876	-0.02570637
0.9878	-0.02614594
0.988	-0.02418821
0.9882	-0.02317333
0.9884	-0.02175898
0.9886	-0.02072864
0.9888	-0.02152621
0.989	-0.01973815
0.9892	-0.01873371
0.9894	-0.01871171
0.9896	-0.0187499
0.9898	-0.01630735
0.99	-0.01208406
0.9902	-0.01100165
0.9904	-0.009153654
0.9906	-0.007282944
0.9908	-0.00500448
0.991	-0.004230492
0.9912	-0.001729658
0.9914	-0.0001083866
0.9916	0.001339728
0.9918	0.004241622
0.992	0.006807953
0.9922	0.00998788
0.9924	0.01123629
0.9926	0.0107976
0.9928	0.01072542
0.993	0.01191024
0.9932	0.01372239
0.9934	0.01587046
0.9936	0.01716036
0.9938	0.0175954
0.994	0.01923189
0.9942	0.02197462
0.9944	0.02494121
0.9946	0.02762376
0.9948	0.02892586
0.995	0.02951466
0.9952	0.02848172
0.9954	0.02837743
0.9956	0.02920035
0.9958	0.02941635
0.996	0.02870037
0.9962	0.02875043
0.9964	0.02906492
0.9966	0.03025297
0.9968	0.03065361
0.997	0.03103249
0.9972	0.03083001
0.9974	0.03087147
0.9976	0.03024739
0.9978	0.02920611
0.998	0.02697864
0.9982	0.02467634
0.9984	0.02345375
0.9986	0.02121596
0.9988	0.0208227
0.999	0.01962294
0.9992	0.0192799
0.9994	0.01805156
0.9996	0.01640629
0.9998	0.0156641
1	0.01336004
1.0002	0.01153552
1.0004	0.009573355
1.0006	0.008326714
1.0008	0.006301801
1.001	0.004876197
1.0012	0.003234918
1.0014	0.001136601
1.0016	-0.0006347235
1.0018	-0.003570587
1.002	-0.005456476
1.0022	-0.007129851
1.0024	-0.008829469
1.0026	-0.01162892
1.0028	-0.01323182
1.003	-0.01333438
1.0032	-0.01381498
1.0034	-0.01339594
1.0036	-0.01481829
1.0038	-0.01817637
1.004	-0.02163647
1.0042	-0.02228465
1.0044	-0.02295331
1.0046	-0.02537008
1.0048	-0.02656109
1.005	-0.02664056
1.0052	-0.02660266
1.0054	-0.02638071
1.0056	-0.02662207
1.0058	-0.0266165
1.006	-0.0276086
1.0062	-0.02902922
1.0064	-0.0295822
1.0066	-0.02989844
1.0068	-0.02811858
1.007	-0.02763908
1.0072	-0.02791631
1.0074	-0.02770485
1.0076	-0.02605296
1.0078	-0.02551656
1.008	-0.02491906
1.0082	-0.02399397
1.0084	-0.02322939
1.0086	-0.02455622
1.0088	-0.0247471
1.009	-0.02349219
1.0092	-0.02086387
1.0094	-0.01769242
1.0096	-0.01511435
1.0098	-0.01256316
1.01	-0.01138676
1.0102	-0.009819202
1.0104	-0.007462506
1.0106	-0.005227673
1.0108	-0.003646423
1.011	-0.003308256
1.0112	-0.001540176
1.0114	0.001498001
1.0116	0.003245169
1.0118	0.003198222
1.012	0.004891839
1.0122	0.00585427
1.0124	0.007365613
1.0126	0.009414674
1.0128	0.01270871
1.013	0.01491204
1.0132	0.01575931
1.0134	0.01672232
1.0136	0.01957208
1.0138	0.02125915
1.014	0.02164609
1.0142	0.02272527
1.0144	0.02195475
1.0146	0.02174716
1.0148	0.02273539
1.015	0.02262936
1.0152	0.02462696
1.0154	0.02610922
1.0156	0.02641946
1.0158	0.0283944
1.016	0.02906268
1.0162	0.0292824
1.0164	0.0283804
1.0166	0.02848734
1.0168	0.02881824
1.017	0.02893278
1.0172	0.02952697
1.0174	0.02878589
1.0176	0.02838496
1.0178	0.02943658
1.018	0.02773954
1.0182	0.02737326
1.0184	0.02686559
1.0186	0.02487118
1.0188	0.02317623
1.019	0.02117064
1.0192	0.01980714
1.0194	0.0172067
1.0196	0.0158093
1.0198	0.01435231
1.02	0.0120689
1.0202	0.01070685
1.0204	0.009977436
1.0206	0.009083224
1.0208	0.007072029
1.021	0.006391791
1.0212	0.004723586
1.0214	0.002386219
1.0216	0.0005920887
1.0218	-0.00217908
1.022	-0.002963448
1.0222	-0.003793419
1.0224	-0.005835879
1.0226	-0.006985295
1.0228	-0.008757648
1.023	-0.0108684
1.0232	-0.01264814
1.0234	-0.01443685
1.0236	-0.0168351
1.0238	-0.01919382
1.024	-0.02019117
1.0242	-0.02016562
1.0244	-0.02193638
1.0246	-0.02443514
1.0248	-0.02418281
1.025	-0.0243318
1.0252	-0.02607944
1.0254	-0.02766383
1.0256	-0.0282149
1.0258	-0.02757481
1.026	-0.02824588
1.0262	-0.02832171
1.0264	-0.02782519
1.0266	-0.02849852
1.0268	-0.02924071
1.027	-0.02886143
1.0272	-0.02769459
1.0274	-0.02810046
1.0276	-0.02911186
1.0278	-0.02924914
1.028	-0.0289097
1.0282	-0.02778719
1.0284	-0.02653386
1.0286	-0.02514598
1.0288	-0.02458924
1.029	-0.02141306
1.0292	-0.01980318
1.0294	-0.01889537
1.0296	-0.0168145
1.0298	-0.016019
1.03	-0.01441915
1.0302	-0.01195442
1.0304	-0.01057102
1.0306	-0.009440916
1.0308	-0.00806515
1.031	-0.007253516
1.0312	-0.004921809
1.0314	-0.002413075
1.0316	-0.001655286
1.0318	-0.0002258747
1.032	0.001888168
1.0322	0.003706898
1.0324	0.006504818
1.0326	0.008938966
1.0328	0.01068482
1.033	0.01140171
1.0332	0.01305282
1.0334	0.01489925
1.0336	0.01668585
1.0338	0.01841015
1.034	0.01910731
1.0342	0.01935143
1.0344	0.02045047
1.0346	0.023244
1.0348	0.02537482
1.035	0.0273088
1.0352	0.02804363
1.0354	0.0277382
1.0356	0.02907179
1.0358	0.03017955
1.036	0.02960187
1.0362	0.0294024
1.0364	0.02852111
1.0366	0.02964808
1.0368	0.02889539
1.037	0.02922245
1.0372	0.0299233
1.0374	0.02962076
1.0376	0.02878963
1.0378	0.02851104
1.038	0.02805217
1.0382	0.02647786
1.0384	0.02368828
1.0386	0.02156425
1.0388	0.01891604
1.039	0.01792641
1.0392	0.01632831
1.0394	0.01572562
1.0396	0.01442333
1.0398	0.01104206
1.04	0.0092251
1.0402	0.008467115
1.0404	0.007485859
1.0406	0.005072748
1.0408	0.002434446
1.041	0.0009265448
1.0412	-0.0003569718
1.0414	-0.002162258
1.0416	-0.004154692
1.0418	-0.007727255
1.042	-0.009977549
1.0422	-0.01086465
1.0424	-0.01249299
1.0426	-0.01288042
1.0428	-0.01488324
1.043	-0.01724346
1.0432	-0.01818343
1.0434	-0.01976216
1.0436	-0.02139289
1.0438	-0.0231115
1.044	-0.02356699
1.0442	-0.02495754
1.0444	-0.02747766
1.0446	-0.02860958
1.0448	-0.02852303
1.045	-0.02783814
1.0452	-0.02787
1.0454	-0.02845413
1.0456	-0.02781258
1.0458	-0.0260513
1.046	-0.02581682
1.0462	-0.0259061
1.0464	-0.02651341
1.0466	-0.02806736
1.0468	-0.02934966
1.047	-0.02993791
1.0472	-0.03048224
1.0474	-0.02898792
1.0476	-0.02900509
1.0478	-0.02803092
1.048	-0.02715581
1.0482	-0.02546997
1.0484	-0.0236691
1.0486	-0.02104165
1.0488	-0.01844292
1.049	-0.01728124
1.0492	-0.01713642
1.0494	-0.01610984
1.0496	-0.01319659
1.0498	-0.01202169
1.05	-0.01080135
1.0502	-0.008301901
1.0504	-0.005188746
1.0506	-0.003262768
1.0508	-0.00226465
1.051	-0.002804517
1.0512	-0.002173976
1.0514	-0.0006221211
1.0516	0.001184726
1.0518	0.003113411
1.052	0.004960426
1.0522	0.008160392
1.0524	0.01021616
1.0526	0.01213758
1.0528	0.01297938
1.053	0.01273162
1.0532	0.01526714
1.0534	0.01856526
1.0536	0.01982064
1.0538	0.02025502
1.054	0.02111302
1.0542	0.02187669
1.0544	0.02209884
1.0546	0.02280433
1.0548	0.02463593
1.055	0.025753
1.0552	0.02581603
1.0554	0.02800486
1.0556	0.02948585
1.0558	0.03068405
1.056	0.03048124
1.0562	0.02973599
1.0564	0.0294784
1.0566	0.02964214
1.0568	0.02982611
1.057	0.02866014
1.0572	0.02768729
1.0574	0.02703693
1.0576	0.02577666
1.0578	0.02536
1.058	0.02519108
1.0582	0.02599327
1.0584	0.02412421
1.0586	0.02221869
1.0588	0.0215977
1.059	0.02096367
1.0592	0.02006629
1.0594	0.01737064
1.0596	0.01713439
1.0598	0.01713354
1.06	0.01566264
1.0602	0.01257311
1.0604	0.01023836
1.0606	0.008848199
1.0608	0.006639295
1.061	0.004847622
1.0612	0.002899911
1.0614	0.002699148
1.0616	0.0005774404
1.0618	-0.0006244502
1.062	-0.000762948
1.0622	-0.002579541
1.0624	-0.005511335
1.0626	-0.009386525
1.0628	-0.01274389
1.063	-0.01365937
1.0632	-0.01596801
1.0634	-0.01647334
1.0636	-0.01678482
1.0638	-0.01892539
1.064	-0.01978699
1.0642	-0.01962774
1.0644	-0.02105987
1.0646	-0.02216898
1.0648	-0.02234626
1.065	-0.02345496
1.0652	-0.02500643
1.0654	-0.02641227
1.0656	-0.02762959
1.0658	-0.0286413
1.066	-0.02798025
1.0662	-0.02886109
1.0664	-0.02883056
1.0666	-0.02912417
1.0668	-0.02921208
1.067	-0.02909317
1.0672	-0.0277875
1.0674	-0.02662233
1.0676	-0.02543288
1.0678	-0.0248333
1.068	-0.02490332
1.0682	-0.02396621
1.0684	-0.02305377
1.0686	-0.02174151
1.0688	-0.02001745
1.069	-0.01947531
1.0692	-0.01962742
1.0694	-0.01769845
1.0696	-0.01564252
1.0698	-0.0129621
1.07	-0.01136832
1.0702	-0.01051083
1.0704	-0.008870721
1.0706	-0.00974795
1.0708	-0.009359558
1.071	-0.008522452
1.0712	-0.007186709
1.0714	-0.00506371
1.0716	-0.003010858
1.0718	-0.001000504
1.072	0.0008329395
1.0722	0.002982499
1.0724	0.005016275
1.0726	0.005390408
1.0728	0.00541748
1.073	0.005426988
1.0732	0.007377392
1.0734	0.01014933
1.0736	0.01166602
1.0738	0.01282288
1.074	0.01418467
1.0742	0.01734156
1.0744	0.01979697
1.0746	0.0215592
1.0748	0.02375282
1.075	0.02538563
1.0752	0.02612652
1.0754	0.02603498
1.0756	0.02834153
1.0758	0.02947731
1.076	0.02833741
1.0762	0.02779193
1.0764	0.02699932
1.0766	0.02731014
1.0768	0.02816617
1.077	0.02861116
1.0772	0.02807178
1.0774	0.02816412
1.0776	0.02756461
1.0778	0.02787309
1.078	0.02593392
1.0782	0.02228985
1.0784	0.02283658
1.0786	0.0224225
1.0788	0.02150645
1.079	0.02102469
1.0792	0.01954309
1.0794	0.01664094
1.0796	0.01389775
1.0798	0.01352507
1.08	0.01326075
1.0802	0.0118009
1.0804	0.009598453
1.0806	0.007344893
1.0808	0.005380711
1.081	0.0049058
1.0812	0.004876736
1.0814	0.003517637
1.0816	0.000779348
1.0818	-0.001690895
1.082	-0.004624771
1.0822	-0.006447135
1.0824	-0.008466949
1.0826	-0.009862593
1.0828	-0.01126088
1.083	-0.0130672
1.0832	-0.01483951
1.0834	-0.01688951
1.0836	-0.01813457
1.0838	-0.01877407
1.084	-0.01949664
1.0842	-0.02205959
1.0844	-0.02265952
1.0846	-0.02282293
1.0848	-0.02320877
1.085	-0.02360626
1.0852	-0.02329499
1.0854	-0.02423945
1.0856	-0.02566116
1.0858	-0.02677306
1.086	-0.02815226
1.0862	-0.02760131
1.0864	-0.02757887
1.0866	-0.02682376
1.0868	-0.02822288
1.087	-0.02798415
1.0872	-0.02745206
1.0874	-0.02717581
1.0876	-0.02786414
1.0878	-0.02702513
1.088	-0.02494643
1.0882	-0.02263838
1.0884	-0.02190027
1.0886	-0.02013003
1.0888	-0.01845542
1.089	-0.01789012
1.0892	-0.01732441
1.0894	-0.01608609
1.0896	-0.01385397
1.0898	-0.01217139
1.09	-0.009806514
1.0902	-0.006680541
1.0904	-0.005080314
1.0906	-0.00305997
1.0908	-0.00195027
1.091	-0.001426167
1.0912	-0.001314806
1.0914	-0.0002048639
1.0916	0.0009972625
1.0918	0.002538877
1.092	0.005208743
1.0922	0.007458272
1.0924	0.008430321
1.0926	0.01028048
1.0928	0.01199668
1.093	0.0130909
1.0932	0.01390814
1.0934	0.01595332
1.0936	0.01740869
1.0938	0.01796386
1.094	0.01890356
1.0942	0.01983697
1.0944	0.02007633
1.0946	0.02090567
1.0948	0.02032416
1.095	0.02138944
1.0952	0.02318791
1.0954	0.02330302
1.0956	0.02232163
1.0958	0.02239081
1.096	0.02187431
1.0962	0.0224132
1.0964	0.02310976
1.0966	0.02334514
1.0968	0.02460267
1.097	0.02535452
1.0972	0.02599476
1.0974	0.02638191
1.0976	0.02740406
1.0978	0.02754124
1.098	0.02639158
1.0982	0.02577189
1.0984	0.02282581
1.0986	0.02091168
1.0988	0.01984453
1.099	0.01919504
1.0992	0.01812292
1.0994	0.01666719
1.0996	0.01609379
1.0998	0.0145426
1.1	0.01307154
1.1002	0.01156893
1.1004	0.009801239
1.1006	0.007189828
1.1008	0.005473072
1.101	0.00391999
1.1012	0.001854604
1.1014	-0.0006407023
1.1016	-0.002662119
1.1018	-0.005644552
1.102	-0.008301076
1.1022	-0.009474781
1.1024	-0.009647999
1.1026	-0.01063993
1.1028	-0.01136114
1.103	-0.01157438
1.1032	-0.01313441
1.1034	-0.0147849
1.1036	-0.01559564
1.1038	-0.01668759
1.104	-0.01795016
1.1042	-0.0198537
1.1044	-0.01957434
1.1046	-0.02079119
1.1048	-0.0224139
1.105	-0.0240933
1.1052	-0.02633106
1.1054	-0.02636196
1.1056	-0.02657921
1.1058	-0.02781615
1.106	-0.02775511
1.1062	-0.0260525
1.1064	-0.02440925
1.1066	-0.02468311
1.1068	-0.02453354
1.107	-0.02449692
1.1072	-0.02535234
1.1074	-0.02510868
1.1076	-0.02573961
1.1078	-0.02620335
1.108	-0.02464872
1.1082	-0.02229379
1.1084	-0.02148535
1.1086	-0.02068019
1.1088	-0.02016368
1.109	-0.01946755
1.1092	-0.01897473
1.1094	-0.01738686
1.1096	-0.01591451
1.1098	-0.0154969
1.11	-0.01350847
1.1102	-0.01170364
1.1104	-0.009888398
1.1106	-0.007074996
1.1108	-0.00566996
1.111	-0.005005891
1.1112	-0.002199085
1.1114	0.000555098
1.1116	0.00213488
1.1118	0.005313537
1.112	0.008307129
1.1122	0.008572141
1.1124	0.01038278
1.1126	0.01159378
1.1128	0.01258297
1.113	0.01430451
1.1132	0.01567558
1.1134	0.017561
1.1136	0.01849906
1.1138	0.01953761
1.114	0.02119288
1.1142	0.02253925
1.1144	0.02208582
1.1146	0.02203616
1.1148	0.02312237
1.115	0.02405842
1.1152	0.02602782
1.1154	0.02856194
1.1156	0.02946698
1.1158	0.02903693
1.116	0.02862234
1.1162	0.02827835
1.1164	0.02761601
1.1166	0.02760014
1.1168	0.02782455
1.117	0.0281644
1.1172	0.02822424
1.1174	0.02794347
1.1176	0.026178
1.1178	0.02430169
1.118	0.02313055
1.1182	0.02193636
1.1184	0.02016583
1.1186	0.01893866
1.1188	0.01869376
1.119	0.01864972
1.1192	0.01785203
1.1194	0.01761463
1.1196	0.01610623
1.1198	0.01396509
1.12	0.01177399
1.1202	0.01028954
1.1204	0.008167241
1.1206	0.007844519
1.1208	0.006206773
1.121	0.004457319
1.1212	0.00231906
1.1214	0.0005426198
1.1216	-0.0004736622
1.1218	-0.003707566
1.122	-0.005596275
1.1222	-0.008060995
1.1224	-0.009748271
1.1226	-0.009628652
1.1228	-0.01070708
1.123	-0.01260758
1.1232	-0.01511187
1.1234	-0.01736126
1.1236	-0.01928306
1.1238	-0.01905959
1.124	-0.01836835
1.1242	-0.01996566
1.1244	-0.02289653
1.1246	-0.0245552
1.1248	-0.02509757
1.125	-0.02482781
1.1252	-0.02513747
1.1254	-0.02563984
1.1256	-0.02702632
1.1258	-0.02688784
1.126	-0.02612116
1.1262	-0.02572832
1.1264	-0.02726233
1.1266	-0.02934836
1.1268	-0.03100737
1.127	-0.03045363
1.1272	-0.02891506
1.1274	-0.02975602
1.1276	-0.02974567
1.1278	-0.02790318
1.128	-0.0259964
1.1282	-0.02336109
1.1284	-0.02151355
1.1286	-0.02069133
1.1288	-0.02073604
1.129	-0.0203709
1.1292	-0.0188574
1.1294	-0.01638517
1.1296	-0.01302433
1.1298	-0.01159653
1.13	-0.01027208
1.1302	-0.008458971
1.1304	-0.007475543
1.1306	-0.008091955
1.1308	-0.005766993
1.131	-0.004531046
1.1312	-0.004107378
1.1314	-0.003061288
1.1316	-0.001451914
1.1318	0.00109778
1.132	0.003018424
1.1322	0.005299128
1.1324	0.007434175
1.1326	0.007950439
1.1328	0.008781476
1.133	0.01008241
1.1332	0.01316505
1.1334	0.01548847
1.1336	0.01694099
1.1338	0.01986572
1.134	0.02078647
1.1342	0.02151226
1.1344	0.02323041
1.1346	0.02383077
1.1348	0.02279629
1.135	0.02254594
1.1352	0.0242181
1.1354	0.02449665
1.1356	0.0245064
1.1358	0.02628119
1.136	0.02702681
1.1362	0.02674266
1.1364	0.02696513
1.1366	0.02721654
1.1368	0.02766695
1.137	0.02743769
1.1372	0.0273334
1.1374	0.02808133
1.1376	0.02809447
1.1378	0.02684948
1.138	0.02508839
1.1382	0.02372552
1.1384	0.02219424
1.1386	0.02079971
1.1388	0.02015932
1.139	0.01977349
1.1392	0.01771654
1.1394	0.01658454
1.1396	0.01567728
1.1398	0.01373628
1.14	0.01171937
1.1402	0.009668965
1.1404	0.00902598
1.1406	0.007078437
1.1408	0.006674013
1.141	0.005716307
1.1412	0.003859581
1.1414	0.001676571
1.1416	0.0007737292
1.1418	-0.0009343112
1.142	-0.003028334
1.1422	-0.004662952
1.1424	-0.008410992
1.1426	-0.01050698
1.1428	-0.01253388
1.143	-0.0141576
1.1432	-0.01678168
1.1434	-0.01821749
1.1436	-0.01847659
1.1438	-0.01893022
1.144	-0.01905402
1.1442	-0.01878996
1.1444	-0.02128847
1.1446	-0.02243632
1.1448	-0.02374155
1.145	-0.02401551
1.1452	-0.02444437
1.1454	-0.02577797
1.1456	-0.02665808
1.1458	-0.0283379
1.146	-0.02938088
1.1462	-0.02718928
1.1464	-0.02534385
1.1466	-0.02553462
1.1468	-0.02594822
1.147	-0.02461332
1.1472	-0.02351234
1.1474	-0.02337486
1.1476	-0.02364253
1.1478	-0.02328775
1.148	-0.02191916
1.1482	-0.02138048
1.1484	-0.02097858
1.1486	-0.02096609
1.1488	-0.02068278
1.149	-0.01904956
1.1492	-0.01713717
1.1494	-0.01604559
1.1496	-0.0141272
1.1498	-0.01148463
1.15	-0.009604105
1.1502	-0.0078207
1.1504	-0.006151209
1.1506	-0.005455288
1.1508	-0.003961244
1.151	-0.00159304
1.1512	0.001221317
1.1514	0.002474651
1.1516	0.003523167
1.1518	0.005527394
1.152	0.008276355
1.1522	0.009757876
1.1524	0.01136389
1.1526	0.01243908
1.1528	0.01308712
1.153	0.01413996
1.1532	0.01547058
1.1534	0.01607353
1.1536	0.01878898
1.1538	0.02060215
1.154	0.02191993
1.1542	0.02411025
1.1544	0.02573068
1.1546	0.02568198
1.1548	0.02536764
1.155	0.02742371
1.1552	0.02862269
1.1554	0.03043367
1.1556	0.03187225
1.1558	0.02991321
1.156	0.02909688
1.1562	0.02904445
1.1564	0.02940519
1.1566	0.02998383
1.1568	0.0296025
1.157	0.0287252
1.1572	0.0278096
1.1574	0.02646526
1.1576	0.02488348
1.1578	0.0221176
1.158	0.02111951
1.1582	0.02108742
1.1584	0.02030214
1.1586	0.02021715
1.1588	0.01845882
1.159	0.01755749
1.1592	0.01573723
1.1594	0.01324048
1.1596	0.01124153
1.1598	0.00843501
1.16	0.005625076
1.1602	0.00406614
1.1604	0.002948774
1.1606	-4.719439e-5
1.1608	-0.001226611
1.161	-0.001840838
1.1612	-0.002892482
1.1614	-0.005416417
1.1616	-0.008121448
1.1618	-0.009273715
1.162	-0.009318996
1.1622	-0.01084003
1.1624	-0.01298502
1.1626	-0.01285761
1.1628	-0.01133893
1.163	-0.01221629
1.1632	-0.01370091
1.1634	-0.01538325
1.1636	-0.01750863
1.1638	-0.01770992
1.164	-0.0178333
1.1642	-0.01911458
1.1644	-0.02002592
1.1646	-0.02142297
1.1648	-0.02367231
1.165	-0.02323116
1.1652	-0.02320712
1.1654	-0.02436643
1.1656	-0.02399682
1.1658	-0.02497188
1.166	-0.02610506
1.1662	-0.02578794
1.1664	-0.02667464
1.1666	-0.0269051
1.1668	-0.02627071
1.167	-0.02592404
1.1672	-0.02445495
1.1674	-0.02462008
1.1676	-0.02472456
1.1678	-0.02426071
1.168	-0.02467394
1.1682	-0.02328943
1.1684	-0.02162184
1.1686	-0.02086482
1.1688	-0.02117509
1.169	-0.02150897
1.1692	-0.01911146
1.1694	-0.01516573
1.1696	-0.01201409
1.1698	-0.01081967
1.17	-0.008754745
1.1702	-0.007294284
1.1704	-0.00627896
1.1706	-0.005565543
1.1708	-0.005513954
1.171	-0.00408863
1.1712	-0.001312372
1.1714	0.0004188906
1.1716	0.002893958
1.1718	0.005142075
1.172	0.00602362
1.1722	0.007123275
1.1724	0.008354888
1.1726	0.01070599
1.1728	0.01396094
1.173	0.01552559
1.1732	0.01529259
1.1734	0.01621786
1.1736	0.01701844
1.1738	0.01843173
1.174	0.02139565
1.1742	0.02281007
1.1744	0.02347266
1.1746	0.02248904
1.1748	0.02271213
1.175	0.02338775
1.1752	0.02386932
1.1754	0.02423298
1.1756	0.02448104
1.1758	0.02680596
1.176	0.02760018
1.1762	0.02817035
1.1764	0.02949758
1.1766	0.02952845
1.1768	0.02817376
1.177	0.02777338
1.1772	0.02908694
1.1774	0.02971834
1.1776	0.03043002
1.1778	0.02973689
1.178	0.02730092
1.1782	0.02588418
1.1784	0.02366368
1.1786	0.02295865
1.1788	0.02234687
1.179	0.02152152
1.1792	0.02054979
1.1794	0.01949489
1.1796	0.0176427
1.1798	0.01604699
1.18	0.01395602
1.1802	0.01111014
1.1804	0.009305316
1.1806	0.008022795
1.1808	0.007194062
1.181	0.005237344
1.1812	0.002508922
1.1814	0.0002571459
1.1816	-0.001210829
1.1818	-0.002683911
1.182	-0.004823041
1.1822	-0.006571849
1.1824	-0.008884842
1.1826	-0.009510688
1.1828	-0.01068483
1.183	-0.0121579
1.1832	-0.01364356
1.1834	-0.0153126
1.1836	-0.01653315
1.1838	-0.01769879
1.184	-0.01877773
1.1842	-0.02100659
1.1844	-0.02288453
1.1846	-0.02250062
1.1848	-0.02118097
1.185	-0.02428046
1.1852	-0.02692641
1.1854	-0.02831649
1.1856	-0.02799439
1.1858	-0.02759921
1.186	-0.02718947
1.1862	-0.02710347
1.1864	-0.02760633
1.1866	-0.02644831
1.1868	-0.02713799
1.187	-0.0271378
1.1872	-0.0276935
1.1874	-0.02669111
1.1876	-0.0274631
1.1878	-0.02697461
1.188	-0.02635134
1.1882	-0.0268249
1.1884	-0.02495479
1.1886	-0.02311211
1.1888	-0.02166753
1.189	-0.02026631
1.1892	-0.01998388
1.1894	-0.0182012
1.1896	-0.01691645
1.1898	-0.01578144
1.19	-0.01307163
1.1902	-0.009979485
1.1904	-0.007500771
1.1906	-0.007270163
1.1908	-0.006294174
1.191	-0.005388878
1.1912	-0.002865708
1.1914	-0.000128386
1.1916	0.002485187
1.1918	0.004845656
1.192	0.005326919
1.1922	0.00562195
1.1924	0.009359305
1.1926	0.01180842
1.1928	0.01224564
1.193	0.01256047
1.1932	0.01427608
1.1934	0.01676081
1.1936	0.01775319
1.1938	0.01928984
1.194	0.01991884
1.1942	0.0210386
1.1944	0.02155869
1.1946	0.02184644
1.1948	0.02272389
1.195	0.02445859
1.1952	0.02475847
1.1954	0.02503514
1.1956	0.02625052
1.1958	0.02614245
1.196	0.02680285
1.1962	0.02851654
1.1964	0.02724819
1.1966	0.02565515
1.1968	0.02724274
1.197	0.02799188
1.1972	0.02698871
1.1974	0.02556918
1.1976	0.02463407
1.1978	0.02500519
1.198	0.02493468
1.1982	0.02368253
1.1984	0.02268906
1.1986	0.02261639
1.1988	0.02236074
1.199	0.0207597
1.1992	0.01852454
1.1994	0.01637305
1.1996	0.01419415
1.1998	0.01257739
1.2	0.01146356
1.2002	0.009778742
1.2004	0.007946162
1.2006	0.004756511
1.2008	0.00344426
1.201	0.004220244
1.2012	0.003174611
1.2014	0.002092061
1.2016	0.0007839273
1.2018	-0.002252279
1.202	-0.0053601
1.2022	-0.007163868
1.2024	-0.008754166
1.2026	-0.01071741
1.2028	-0.01260193
1.203	-0.01468754
1.2032	-0.01745311
1.2034	-0.0205544
1.2036	-0.0221889
1.2038	-0.022522
1.204	-0.02492114
1.2042	-0.02621673
1.2044	-0.02681908
1.2046	-0.02696481
1.2048	-0.02720275
1.205	-0.02746863
1.2052	-0.02702392
1.2054	-0.02726104
1.2056	-0.02907642
1.2058	-0.02974918
1.206	-0.02993749
1.2062	-0.03037998
1.2064	-0.02958063
1.2066	-0.02836182
1.2068	-0.02818803
1.207	-0.0288646
1.2072	-0.02873795
1.2074	-0.02770686
1.2076	-0.0271236
1.2078	-0.0264709
1.208	-0.02534057
1.2082	-0.02485144
1.2084	-0.0233879
1.2086	-0.02215565
1.2088	-0.02250834
1.209	-0.02138874
1.2092	-0.01969958
1.2094	-0.01906127
1.2096	-0.01654948
1.2098	-0.01445716
1.21	-0.01322899
1.2102	-0.009578727
1.2104	-0.008003341
1.2106	-0.009299564
1.2108	-0.006754648
1.211	-0.004343549
1.2112	-0.001829437
1.2114	-0.0002821547
1.2116	7.423881e-5
1.2118	0.001886937
1.212	0.003527975
1.2122	0.005939131
1.2124	0.007016559
1.2126	0.009320864
1.2128	0.0108034
1.213	0.01274886
1.2132	0.0149857
1.2134	0.01708042
1.2136	0.01892751
1.2138	0.01926194
1.214	0.02078014
1.2142	0.02165663
1.2144	0.02259522
1.2146	0.02350744
1.2148	0.02447772
1.215	0.02536545
1.2152	0.026538
1.2154	0.02854044
1.2156	0.02894443
1.2158	0.0286296
1.216	0.02804179
1.2162	0.02950443
1.2164	0.03000396
1.2166	0.03038351
1.2168	0.02982995
1.217	0.02809585
1.2172	0.02907618
1.2174	0.02953321
1.2176	0.03055685
1.2178	0.02833865
1.218	0.02686174
1.2182	0.0265798
1.2184	0.02584844
1.2186	0.02505377
1.2188	0.02283635
1.219	0.02061507
1.2192	0.01899816
1.2194	0.01669746
1.2196	0.01438579
1.2198	0.01206996
1.22	0.008219762
1.2202	0.007161839
1.2204	0.007639879
1.2206	0.006389882
1.2208	0.00505905
1.221	0.004341529
1.2212	0.002648419
1.2214	-0.0001877432
1.2216	-0.001600937
1.2218	-0.005360033
1.222	-0.006289528
1.2222	-0.00560643
1.2224	-0.007202716
1.2226	-0.007956134
1.2228	-0.00912808
1.223	-0.01176295
1.2232	-0.01353968
1.2234	-0.01480821
1.2236	-0.01571842
1.2238	-0.01643224
1.224	-0.01837222
1.2242	-0.02099532
1.2244	-0.02318571
1.2246	-0.02467678
1.2248	-0.02545432
1.225	-0.02434747
1.2252	-0.02467647
1.2254	-0.02406095
1.2256	-0.02492565
1.2258	-0.02509745
1.226	-0.02587013
1.2262	-0.02538931
1.2264	-0.02499006
1.2266	-0.02606085
1.2268	-0.02664517
1.227	-0.02809856
1.2272	-0.02856046
1.2274	-0.02899425
1.2276	-0.02740533
1.2278	-0.02414292
1.228	-0.02211867
1.2282	-0.02240271
1.2284	-0.02163242
1.2286	-0.02095706
1.2288	-0.01971657
1.229	-0.01764547
1.2292	-0.01670212
1.2294	-0.01571328
1.2296	-0.01444819
1.2298	-0.01242098
1.23	-0.01050683
1.2302	-0.009547983
1.2304	-0.008776324
1.2306	-0.006860186
1.2308	-0.005267166
1.231	-0.005035233
1.2312	-0.003658466
1.2314	-0.002386039
1.2316	0.000163691
1.2318	0.002378261
1.232	0.003912227
1.2322	0.00648771
1.2324	0.01068079
1.2326	0.0135663
1.2328	0.01294312
1.233	0.01398433
1.2332	0.01717386
1.2334	0.0186292
1.2336	0.01964837
1.2338	0.02149671
1.234	0.02315117
1.2342	0.02246129
1.2344	0.02259165
1.2346	0.0226842
1.2348	0.02219086
1.235	0.02266211
1.2352	0.02365427
1.2354	0.02311836
1.2356	0.02259404
1.2358	0.02261824
1.236	0.02281649
1.2362	0.02382041
1.2364	0.02416345
1.2366	0.02498198
1.2368	0.02617344
1.237	0.02402314
1.2372	0.0226636
1.2374	0.0221596
1.2376	0.02233177
1.2378	0.02252802
1.238	0.02134487
1.2382	0.0204972
1.2384	0.02173364
1.2386	0.02198601
1.2388	0.02115047
1.239	0.02026605
1.2392	0.01830799
1.2394	0.01490364
1.2396	0.01253404
1.2398	0.01024333
1.24	0.009365014
1.2402	0.008456074
1.2404	0.007403367
1.2406	0.004835163
1.2408	0.003331622
1.241	0.002264938
1.2412	0.002249995
1.2414	0.001433085
1.2416	-0.001605196
1.2418	-0.003015173
1.242	-0.005350478
1.2422	-0.006346419
1.2424	-0.00667243
1.2426	-0.01123851
1.2428	-0.01426099
1.243	-0.01556209
1.2432	-0.01672965
1.2434	-0.01644733
1.2436	-0.01711202
1.2438	-0.01800742
1.244	-0.01976647
1.2442	-0.02166483
1.2444	-0.02235933
1.2446	-0.02165326
1.2448	-0.02222525
1.245	-0.02289865
1.2452	-0.02391385
1.2454	-0.02479616
1.2456	-0.02684968
1.2458	-0.02849058
1.246	-0.02681378
1.2462	-0.02521087
1.2464	-0.0257535
1.2466	-0.0274436
1.2468	-0.02743588
1.247	-0.02622375
1.2472	-0.02664677
1.2474	-0.02924953
1.2476	-0.02920893
1.2478	-0.02863667
1.248	-0.02750489
1.2482	-0.0268249
1.2484	-0.02574619
1.2486	-0.02576241
1.2488	-0.02742894
1.249	-0.02669714
1.2492	-0.02454928
1.2494	-0.02213559
1.2496	-0.02102411
1.2498	-0.01924744
1.25	-0.01946707
1.2502	-0.01815005
1.2504	-0.01535095
1.2506	-0.01202105
1.2508	-0.008781999
1.251	-0.00703609
1.2512	-0.004846947
1.2514	-0.002128742
1.2516	0.0003919345
1.2518	0.002029084
1.252	0.002859831
1.2522	0.0055151
1.2524	0.008387865
1.2526	0.0103267
1.2528	0.01187567
1.253	0.01254691
1.2532	0.01432261
1.2534	0.01689039
1.2536	0.01971552
1.2538	0.02113839
1.254	0.02254852
1.2542	0.02457437
1.2544	0.02632144
1.2546	0.02756298
1.2548	0.02787875
1.255	0.0295741
1.2552	0.03050404
1.2554	0.02978369
1.2556	0.02890504
1.2558	0.02782992
1.256	0.02717961
1.2562	0.02849556
1.2564	0.02966646
1.2566	0.02880237
1.2568	0.02839831
1.257	0.02918039
1.2572	0.02966197
1.2574	0.02911399
1.2576	0.03024807
1.2578	0.02886548
1.258	0.02796964
1.2582	0.02766639
1.2584	0.02615692
1.2586	0.02509657
1.2588	0.02316407
1.259	0.02198862
1.2592	0.02147336
1.2594	0.01829773
1.2596	0.01628916
1.2598	0.01377263
1.26	0.01337724
1.2602	0.01336703
1.2604	0.01133215
1.2606	0.008639448
1.2608	0.006944552
1.261	0.005832548
1.2612	0.005678734
1.2614	0.004796114
1.2616	0.001508206
1.2618	-0.0006519802
1.262	-0.002178164
1.2622	-0.004890716
1.2624	-0.006437561
1.2626	-0.006185018
1.2628	-0.007709508
1.263	-0.0109304
1.2632	-0.01305867
1.2634	-0.01523556
1.2636	-0.01741995
1.2638	-0.01824184
1.264	-0.01764066
1.2642	-0.01886155
1.2644	-0.02143246
1.2646	-0.02232973
1.2648	-0.02184073
1.265	-0.02221417
1.2652	-0.0221428
1.2654	-0.0235777
1.2656	-0.02527968
1.2658	-0.02589491
1.266	-0.02597298
1.2662	-0.0266827
1.2664	-0.02571272
1.2666	-0.02586726
1.2668	-0.02616601
1.267	-0.02747573
1.2672	-0.02973189
1.2674	-0.03026279
1.2676	-0.02868327
1.2678	-0.02667164
1.268	-0.02605772
1.2682	-0.02533231
1.2684	-0.02506732
1.2686	-0.02309486
1.2688	-0.0211715
1.269	-0.02000191
1.2692	-0.01807276
1.2694	-0.01763884
1.2696	-0.01581571
1.2698	-0.01346858
1.27	-0.0106745
1.2702	-0.008503902
1.2704	-0.006988104
1.2706	-0.005907181
1.2708	-0.004693471
1.271	-0.003892701
1.2712	-0.00133082
1.2714	-0.0001488755
1.2716	0.001183321
1.2718	0.00520211
1.272	0.006468671
1.2722	0.007439057
1.2724	0.008005159
1.2726	0.008823661
1.2728	0.01148721
1.273	0.01307476
1.2732	0.01406013
1.2734	0.0174314
1.2736	0.02052215
1.2738	0.02188795
1.274	0.02239966
1.2742	0.0222616
1.2744	0.02068291
1.2746	0.02041947
1.2748	0.0211634
1.275	0.02160134
1.2752	0.02166756
1.2754	0.02206847
1.2756	0.02361212
1.2758	0.0247398
1.276	0.02441369
1.2762	0.02486508
1.2764	0.02663424
1.2766	0.02587878
1.2768	0.0243069
1.277	0.02434465
1.2772	0.02477496
1.2774	0.02441429
1.2776	0.02442856
1.2778	0.0250971
1.278	0.02412128
1.2782	0.02240376
1.2784	0.02089234
1.2786	0.0199952
1.2788	0.01884804
1.279	0.0175099
1.2792	0.0155065
1.2794	0.0126929
1.2796	0.01060516
1.2798	0.008878295
1.28	0.008998071
1.2802	0.00919122
1.2804	0.007085294
1.2806	0.004719813
1.2808	0.003963556
1.281	0.00215227
1.2812	0.0002366824
1.2814	-0.0007954321
1.2816	-0.001840193
1.2818	-0.002536622
1.282	-0.00517126
1.2822	-0.007352959
1.2824	-0.008870178
1.2826	-0.01119369
1.2828	-0.0137928
1.283	-0.01535792
1.2832	-0.01571087
1.2834	-0.01735789
1.2836	-0.01766801
1.2838	-0.01831924
1.284	-0.01985314
1.2842	-0.02062801
1.2844	-0.0211498
1.2846	-0.02078975
1.2848	-0.02133256
1.285	-0.02221805
1.2852	-0.02242962
1.2854	-0.02487572
1.2856	-0.0261986
1.2858	-0.02787258
1.286	-0.02767526
1.2862	-0.02695504
1.2864	-0.02574176
1.2866	-0.02538525
1.2868	-0.02568337
1.287	-0.02698231
1.2872	-0.02760199
1.2874	-0.02779935
1.2876	-0.02693749
1.2878	-0.02492006
1.288	-0.0222226
1.2882	-0.0203647
1.2884	-0.02064106
1.2886	-0.0202489
1.2888	-0.01931703
1.289	-0.01850246
1.2892	-0.01804908
1.2894	-0.01686781
1.2896	-0.01499459
1.2898	-0.01350927
1.29	-0.01125908
1.2902	-0.009029778
1.2904	-0.007767607
1.2906	-0.005888038
1.2908	-0.004496511
1.291	-0.003166178
1.2912	-0.001792894
1.2914	-0.0003739696
1.2916	0.001333958
1.2918	0.002844864
1.292	0.004931054
1.2922	0.006357226
1.2924	0.007599915
1.2926	0.008032426
1.2928	0.009390955
1.293	0.01232833
1.2932	0.01491766
1.2934	0.01722114
1.2936	0.01807871
1.2938	0.01957787
1.294	0.02184155
1.2942	0.02303215
1.2944	0.02213442
1.2946	0.02303788
1.2948	0.02406826
1.295	0.02513628
1.2952	0.02890409
1.2954	0.02955293
1.2956	0.02951705
1.2958	0.02899604
1.296	0.02748713
1.2962	0.02751318
1.2964	0.02793295
1.2966	0.02677612
1.2968	0.02649932
1.297	0.0254315
1.2972	0.02469852
1.2974	0.02502101
1.2976	0.02505872
1.2978	0.02291232
1.298	0.02223218
1.2982	0.0235542
1.2984	0.02219634
1.2986	0.02067384
1.2988	0.01989258
1.299	0.01859634
1.2992	0.01656326
1.2994	0.01575787
1.2996	0.01362404
1.2998	0.01164376
1.3	0.009238329
1.3002	0.005526986
1.3004	0.004987645
1.3006	0.006210666
1.3008	0.006213044
1.301	0.00561181
1.3012	0.002124159
1.3014	-0.0007810773
1.3016	-0.003046951
1.3018	-0.004660185
1.302	-0.006470343
