Source File Name:	Scan
Signal:	Time - Ref2 Voltage - Samples

Time	Time Signal
[ s ]	[ V ]
0	-0.014798
0.0002	-0.0161055
0.0004	-0.01770653
0.0006	-0.01749556
0.0008	-0.01904895
0.001	-0.01918189
0.0012	-0.01983239
0.0014	-0.02204466
0.0016	-0.02168059
0.0018	-0.02225804
0.002	-0.02183898
0.0022	-0.02360284
0.0024	-0.02491526
0.0026	-0.02517396
0.0028	-0.02750882
0.003	-0.02885276
0.0032	-0.02921408
0.0034	-0.02936184
0.0036	-0.02961645
0.0038	-0.03015089
0.004	-0.02930053
0.0042	-0.02779898
0.0044	-0.02697336
0.0046	-0.02518872
0.0048	-0.02512355
0.005	-0.02324064
0.0052	-0.02174411
0.0054	-0.02032217
0.0056	-0.01838258
0.0058	-0.01759975
0.006	-0.01630944
0.0062	-0.0140774
0.0064	-0.01254774
0.0066	-0.01136163
0.0068	-0.01109906
0.007	-0.01149457
0.0072	-0.008126567
0.0074	-0.005076308
0.0076	-0.002830496
0.0078	-0.0005152519
0.008	0.00167791
0.0082	0.003499997
0.0084	0.004944896
0.0086	0.006681118
0.0088	0.008068444
0.009	0.01002338
0.0092	0.0118082
0.0094	0.01192818
0.0096	0.01426459
0.0098	0.01559831
0.01	0.01688547
0.0102	0.01934334
0.0104	0.02072291
0.0106	0.02226136
0.0108	0.0226857
0.011	0.02378986
0.0112	0.02427041
0.0114	0.02442765
0.0116	0.02567871
0.0118	0.02589477
0.012	0.02620702
0.0122	0.02703317
0.0124	0.02755708
0.0126	0.02799954
0.0128	0.0287046
0.013	0.02838561
0.0132	0.02723529
0.0134	0.02659532
0.0136	0.02713502
0.0138	0.02654291
0.014	0.02692476
0.0142	0.02605967
0.0144	0.02442769
0.0146	0.02466236
0.0148	0.02333115
0.015	0.02061793
0.0152	0.01992751
0.0154	0.02016808
0.0156	0.01903781
0.0158	0.0164195
0.016	0.01495558
0.0162	0.01291931
0.0164	0.0121174
0.0166	0.0106884
0.0168	0.008731466
0.017	0.007494979
0.0172	0.006809038
0.0174	0.005066444
0.0176	0.00208716
0.0178	-0.0008323758
0.018	-0.002430801
0.0182	-0.003088603
0.0184	-0.002978048
0.0186	-0.005488034
0.0188	-0.007991554
0.019	-0.008343798
0.0192	-0.009930708
0.0194	-0.01268331
0.0196	-0.01434397
0.0198	-0.01598493
0.02	-0.01738262
0.0202	-0.01980946
0.0204	-0.02127482
0.0206	-0.02149801
0.0208	-0.02203989
0.021	-0.02307109
0.0212	-0.02404931
0.0214	-0.02422435
0.0216	-0.02415431
0.0218	-0.02505974
0.022	-0.02596085
0.0222	-0.02615767
0.0224	-0.0269228
0.0226	-0.02693064
0.0228	-0.02725649
0.023	-0.02792707
0.0232	-0.02855084
0.0234	-0.02685128
0.0236	-0.02690475
0.0238	-0.02541273
0.024	-0.0252435
0.0242	-0.02469368
0.0244	-0.02385002
0.0246	-0.02367033
0.0248	-0.0223998
0.025	-0.02185029
0.0252	-0.02044222
0.0254	-0.01928194
0.0256	-0.01786187
0.0258	-0.01661519
0.026	-0.01566259
0.0262	-0.01416093
0.0264	-0.01249727
0.0266	-0.01071482
0.0268	-0.009466024
0.027	-0.006436315
0.0272	-0.003520417
0.0274	-0.001530845
0.0276	-0.0005131838
0.0278	0.0008583028
0.028	0.002029782
0.0282	0.003958266
0.0284	0.005696957
0.0286	0.006553136
0.0288	0.007565785
0.029	0.009172302
0.0292	0.009984359
0.0294	0.01209146
0.0296	0.01316469
0.0298	0.01464858
0.03	0.01611491
0.0302	0.01591629
0.0304	0.01803154
0.0306	0.01919398
0.0308	0.02095863
0.031	0.02257541
0.0312	0.02269189
0.0314	0.02355205
0.0316	0.02480195
0.0318	0.02574007
0.032	0.02450889
0.0322	0.02410935
0.0324	0.02531015
0.0326	0.02721707
0.0328	0.02699883
0.033	0.02498067
0.0332	0.02526145
0.0334	0.02516998
0.0336	0.02588633
0.0338	0.02753945
0.034	0.02813714
0.0342	0.0278147
0.0344	0.02736004
0.0346	0.02613776
0.0348	0.02453463
0.035	0.02312022
0.0352	0.02279508
0.0354	0.02187448
0.0356	0.02033363
0.0358	0.02031985
0.036	0.01909206
0.0362	0.01728746
0.0364	0.01498729
0.0366	0.01232717
0.0368	0.01201371
0.037	0.01100101
0.0372	0.008573632
0.0374	0.005025458
0.0376	0.002942433
0.0378	0.0008859072
0.038	-0.001298624
0.0382	-0.00214088
0.0384	-0.005963827
0.0386	-0.008488469
0.0388	-0.01178616
0.039	-0.01338129
0.0392	-0.01397931
0.0394	-0.01421448
0.0396	-0.01471932
0.0398	-0.01702563
0.04	-0.0175434
0.0402	-0.01991356
0.0404	-0.02302583
0.0406	-0.02328788
0.0408	-0.02193137
0.041	-0.02224945
0.0412	-0.02377518
0.0414	-0.02591948
0.0416	-0.02730285
0.0418	-0.02680101
0.042	-0.02951251
0.0422	-0.03262828
0.0424	-0.0333616
0.0426	-0.03214139
0.0428	-0.03081288
0.043	-0.03070252
0.0432	-0.02950977
0.0434	-0.02834499
0.0436	-0.03060942
0.0438	-0.03093716
0.044	-0.02904139
0.0442	-0.02656826
0.0444	-0.02474024
0.0446	-0.02414723
0.0448	-0.0223454
0.045	-0.01957656
0.0452	-0.01824662
0.0454	-0.01849177
0.0456	-0.01848903
0.0458	-0.01642751
0.046	-0.01500333
0.0462	-0.01341961
0.0464	-0.01234394
0.0466	-0.01051135
0.0468	-0.007840297
0.047	-0.005373666
0.0472	-0.00316804
0.0474	-0.001729946
0.0476	-0.0006217154
0.0478	0.001367202
0.048	0.003635796
0.0482	0.004153362
0.0484	0.004910508
0.0486	0.006499651
0.0488	0.009398547
0.049	0.01090425
0.0492	0.01112079
0.0494	0.01308229
0.0496	0.01464385
0.0498	0.01704384
0.05	0.0183534
0.0502	0.01981249
0.0504	0.02065808
0.0506	0.02241363
0.0508	0.02276363
0.051	0.02274594
0.0512	0.02273123
0.0514	0.02247306
0.0516	0.02437204
0.0518	0.02563214
0.052	0.02683625
0.0522	0.02873119
0.0524	0.02955593
0.0526	0.02871025
0.0528	0.02856673
0.053	0.02783765
0.0532	0.0275592
0.0534	0.02908944
0.0536	0.02994113
0.0538	0.02860807
0.054	0.02506192
0.0542	0.02575685
0.0544	0.0238306
0.0546	0.02291289
0.0548	0.02242607
0.055	0.01914983
0.0552	0.01779151
0.0554	0.01666837
0.0556	0.01642735
0.0558	0.01570049
0.056	0.01508474
0.0562	0.01487669
0.0564	0.01385154
0.0566	0.01068483
0.0568	0.008754247
0.057	0.006565246
0.0572	0.004052125
0.0574	0.001499896
0.0576	-0.0007561134
0.0578	-0.00277003
0.058	-0.004491333
0.0582	-0.005618626
0.0584	-0.006167879
0.0586	-0.008645782
0.0588	-0.009617074
0.059	-0.01141569
0.0592	-0.01285192
0.0594	-0.01386219
0.0596	-0.0148534
0.0598	-0.01428677
0.06	-0.01525227
0.0602	-0.01407271
0.0604	-0.01466007
0.0606	-0.01675703
0.0608	-0.01725341
0.061	-0.01772439
0.0612	-0.01901479
0.0614	-0.02071657
0.0616	-0.02289898
0.0618	-0.02368288
0.062	-0.02507821
0.0622	-0.02644972
0.0624	-0.02769704
0.0626	-0.0280367
0.0628	-0.03006591
0.063	-0.03002952
0.0632	-0.02978886
0.0634	-0.02954188
0.0636	-0.0289266
0.0638	-0.02838294
0.064	-0.02743709
0.0642	-0.02468674
0.0644	-0.02325975
0.0646	-0.0229594
0.0648	-0.02181326
0.065	-0.02114174
0.0652	-0.01925641
0.0654	-0.01826877
0.0656	-0.01865011
0.0658	-0.01701194
0.066	-0.01531137
0.0662	-0.01430458
0.0664	-0.01320038
0.0666	-0.01146282
0.0668	-0.01079258
0.067	-0.00882692
0.0672	-0.006057024
0.0674	-0.004153502
0.0676	-0.001069568
0.0678	0.0007911777
0.068	0.002754432
0.0682	0.005579858
0.0684	0.007107082
0.0686	0.008805867
0.0688	0.01081883
0.069	0.01313925
0.0692	0.01558106
0.0694	0.01510346
0.0696	0.01631976
0.0698	0.01845306
0.07	0.01873866
0.0702	0.02066674
0.0704	0.02352464
0.0706	0.02436185
0.0708	0.02493502
0.071	0.02590358
0.0712	0.02522177
0.0714	0.02548751
0.0716	0.02632377
0.0718	0.02627312
0.072	0.02684605
0.0722	0.0273187
0.0724	0.02856149
0.0726	0.02927306
0.0728	0.02894353
0.073	0.02816742
0.0732	0.02846744
0.0734	0.0290429
0.0736	0.02780695
0.0738	0.0268838
0.074	0.02522171
0.0742	0.02344988
0.0744	0.02392582
0.0746	0.02385682
0.0748	0.02199995
0.075	0.01911815
0.0752	0.01728748
0.0754	0.01445617
0.0756	0.0125195
0.0758	0.01051862
0.076	0.008453699
0.0762	0.007215793
0.0764	0.00487906
0.0766	0.003868896
0.0768	0.004119996
0.077	0.002724466
0.0772	0.0008091691
0.0774	-0.0001948167
0.0776	-0.001605124
0.0778	-0.003202199
0.078	-0.005419055
0.0782	-0.006962941
0.0784	-0.009448919
0.0786	-0.01137305
0.0788	-0.01221844
0.079	-0.01211926
0.0792	-0.01314008
0.0794	-0.01438788
0.0796	-0.0142599
0.0798	-0.01712424
0.08	-0.01859401
0.0802	-0.01834203
0.0804	-0.01739907
0.0806	-0.01815159
0.0808	-0.01861585
0.081	-0.01901635
0.0812	-0.01996214
0.0814	-0.02131236
0.0816	-0.02235279
0.0818	-0.02263485
0.082	-0.02362326
0.0822	-0.02484019
0.0824	-0.02772168
0.0826	-0.02732584
0.0828	-0.02781299
0.083	-0.02771253
0.0832	-0.02660221
0.0834	-0.02726429
0.0836	-0.02665011
0.0838	-0.02640277
0.084	-0.02540752
0.0842	-0.02418789
0.0844	-0.02234814
0.0846	-0.02090882
0.0848	-0.01884847
0.085	-0.01828058
0.0852	-0.01762458
0.0854	-0.01643749
0.0856	-0.01602162
0.0858	-0.01448501
0.086	-0.01424693
0.0862	-0.0157299
0.0864	-0.01361799
0.0866	-0.01059249
0.0868	-0.009399784
0.087	-0.00919728
0.0872	-0.006817029
0.0874	-0.004842767
0.0876	-0.004061862
0.0878	-0.001047334
0.088	0.002210625
0.0882	0.002945115
0.0884	0.004281268
0.0886	0.007491603
0.0888	0.008148879
0.089	0.00895291
0.0892	0.009358682
0.0894	0.01055835
0.0896	0.01182034
0.0898	0.01448613
0.09	0.01822811
0.0902	0.02035097
0.0904	0.01894991
0.0906	0.02011332
0.0908	0.0214951
0.091	0.02190345
0.0912	0.02281129
0.0914	0.02399634
0.0916	0.02493698
0.0918	0.02516507
0.092	0.02664253
0.0922	0.02671189
0.0924	0.02703896
0.0926	0.02851472
0.0928	0.02785392
0.093	0.02587588
0.0932	0.0244895
0.0934	0.02444494
0.0936	0.02436403
0.0938	0.02374326
0.094	0.02282016
0.0942	0.02113386
0.0944	0.02221151
0.0946	0.02230652
0.0948	0.01963925
0.095	0.01764472
0.0952	0.01698882
0.0954	0.01516548
0.0956	0.01356966
0.0958	0.01216728
0.096	0.0106883
0.0962	0.009534599
0.0964	0.009985439
0.0966	0.008858271
0.0968	0.005689233
0.097	0.004107122
0.0972	0.00351038
0.0974	0.00144229
0.0976	8.524205e-6
0.0978	-0.001065412
0.098	-0.002644907
0.0982	-0.003178707
0.0984	-0.004173692
0.0986	-0.005365533
0.0988	-0.00688834
0.099	-0.008910995
0.0992	-0.0103722
0.0994	-0.01224957
0.0996	-0.01309466
0.0998	-0.01380142
0.1	-0.01573387
0.1002	-0.01761568
0.1004	-0.019172
0.1006	-0.01875728
0.1008	-0.01803217
0.101	-0.02018055
0.1012	-0.02143725
0.1014	-0.0201458
0.1016	-0.02016468
0.1018	-0.02019826
0.102	-0.02084723
0.1022	-0.02200934
0.1024	-0.02132511
0.1026	-0.01998711
0.1028	-0.01994629
0.103	-0.02033938
0.1032	-0.0202869
0.1034	-0.01983065
0.1036	-0.02061222
0.1038	-0.02078106
0.104	-0.02022264
0.1042	-0.02050949
0.1044	-0.01918512
0.1046	-0.01931797
0.1048	-0.01899114
0.105	-0.01877769
0.1052	-0.01778682
0.1054	-0.01560605
0.1056	-0.01447027
0.1058	-0.01267402
0.106	-0.01177319
0.1062	-0.01138156
0.1064	-0.00901109
0.1066	-0.008123406
0.1068	-0.007065995
0.107	-0.005264768
0.1072	-0.003391184
0.1074	-0.001031943
0.1076	0.001498097
0.1078	0.003046861
0.108	0.003526405
0.1082	0.004231699
0.1084	0.006184331
0.1086	0.009747392
0.1088	0.01138044
0.109	0.01126711
0.1092	0.01104479
0.1094	0.01247259
0.1096	0.01368291
0.1098	0.01504281
0.11	0.01707005
0.1102	0.01909585
0.1104	0.02113248
0.1106	0.0222632
0.1108	0.02094072
0.111	0.02011333
0.1112	0.02141307
0.1114	0.02307988
0.1116	0.02476884
0.1118	0.02526955
0.112	0.02420544
0.1122	0.02478973
0.1124	0.02367138
0.1126	0.02401657
0.1128	0.0247349
0.113	0.02369022
0.1132	0.02339857
0.1134	0.02358996
0.1136	0.02341799
0.1138	0.023296
0.114	0.02087971
0.1142	0.02024377
0.1144	0.02006881
0.1146	0.01810475
0.1148	0.01752963
0.115	0.01560769
0.1152	0.01559801
0.1154	0.0168372
0.1156	0.01552312
0.1158	0.01303539
0.116	0.01209442
0.1162	0.01119544
0.1164	0.01024373
0.1166	0.009390441
0.1168	0.0072095
0.117	0.004744745
0.1172	0.003420349
0.1174	0.002427544
0.1176	-0.0003124834
0.1178	-0.0036327
0.118	-0.005393578
0.1182	-0.008003459
0.1184	-0.0100836
0.1186	-0.01101098
0.1188	-0.01318802
0.119	-0.01442641
0.1192	-0.01401479
0.1194	-0.01455248
0.1196	-0.01448512
0.1198	-0.01508251
0.12	-0.0144319
0.1202	-0.01557707
0.1204	-0.01578997
0.1206	-0.01580921
0.1208	-0.01606151
0.121	-0.01542312
0.1212	-0.01629456
0.1214	-0.01772923
0.1216	-0.01900926
0.1218	-0.02078095
0.122	-0.02148032
0.1222	-0.02224352
0.1224	-0.02228114
0.1226	-0.02300295
0.1228	-0.02440769
0.123	-0.02635761
0.1232	-0.02733907
0.1234	-0.02786546
0.1236	-0.0280206
0.1238	-0.03146771
0.124	-0.03219382
0.1242	-0.02980951
0.1244	-0.02928455
0.1246	-0.02913152
0.1248	-0.02780041
0.125	-0.02553993
0.1252	-0.02355196
0.1254	-0.02163513
0.1256	-0.01880426
0.1258	-0.01660126
0.126	-0.01478128
0.1262	-0.01336989
0.1264	-0.01321556
0.1266	-0.01128658
0.1268	-0.008883954
0.127	-0.006753113
0.1272	-0.006184372
0.1274	-0.004156699
0.1276	-0.001826671
0.1278	-0.000996514
0.128	-0.0001228494
0.1282	0.001319708
0.1284	0.003945083
0.1286	0.005295875
0.1288	0.005579362
0.129	0.006056317
0.1292	0.007478332
0.1294	0.01001307
0.1296	0.01029006
0.1298	0.01243515
0.13	0.01594431
0.1302	0.0203372
0.1304	0.02169387
0.1306	0.02079526
0.1308	0.02055557
0.131	0.02157719
0.1312	0.02390908
0.1314	0.02402583
0.1316	0.02431369
0.1318	0.02395191
0.132	0.02428712
0.1322	0.02622668
0.1324	0.02655515
0.1326	0.02758223
0.1328	0.02684717
0.133	0.02680902
0.1332	0.02716449
0.1334	0.02719615
0.1336	0.02751325
0.1338	0.02726666
0.134	0.0248837
0.1342	0.02336307
0.1344	0.02293335
0.1346	0.02316178
0.1348	0.02312396
0.135	0.02333602
0.1352	0.02282526
0.1354	0.02231669
0.1356	0.02082142
0.1358	0.01912522
0.136	0.01812196
0.1362	0.01604094
0.1364	0.01269874
0.1366	0.01113888
0.1368	0.009106987
0.137	0.007060663
0.1372	0.005643768
0.1374	0.004157771
0.1376	0.002180624
0.1378	-0.0005380618
0.138	-0.003081952
0.1382	-0.00533246
0.1384	-0.006524082
0.1386	-0.007926149
0.1388	-0.008493001
0.139	-0.009043043
0.1392	-0.009132113
0.1394	-0.01143482
0.1396	-0.01241572
0.1398	-0.01379566
0.14	-0.01594284
0.1402	-0.0175987
0.1404	-0.01933105
0.1406	-0.02053464
0.1408	-0.02146772
0.141	-0.02433976
0.1412	-0.02479824
0.1414	-0.02554841
0.1416	-0.02490644
0.1418	-0.024939
0.142	-0.02540794
0.1422	-0.02486358
0.1424	-0.02611006
0.1426	-0.02595456
0.1428	-0.0269981
0.143	-0.02758332
0.1432	-0.02610126
0.1434	-0.02660852
0.1436	-0.02515032
0.1438	-0.02477206
0.144	-0.02413779
0.1442	-0.02245091
0.1444	-0.02180539
0.1446	-0.02025832
0.1448	-0.02056221
0.145	-0.01980876
0.1452	-0.01907243
0.1454	-0.01791932
0.1456	-0.01706852
0.1458	-0.01669752
0.146	-0.01377595
0.1462	-0.01257118
0.1464	-0.01145173
0.1466	-0.01021686
0.1468	-0.008933989
0.147	-0.007438908
0.1472	-0.005753851
0.1474	-0.00325568
0.1476	-0.003258354
0.1478	-0.002576815
0.148	0.00053954
0.1482	0.00292177
0.1484	0.00425902
0.1486	0.005360077
0.1488	0.006593849
0.149	0.008913019
0.1492	0.009481411
0.1494	0.01016398
0.1496	0.01041711
0.1498	0.01324703
0.15	0.01585662
0.1502	0.01605731
0.1504	0.01630975
0.1506	0.01813483
0.1508	0.02030332
0.151	0.02081981
0.1512	0.02092291
0.1514	0.02310376
0.1516	0.02242324
0.1518	0.02225528
0.152	0.02323925
0.1522	0.02647229
0.1524	0.02872358
0.1526	0.02762753
0.1528	0.02471359
0.153	0.02441448
0.1532	0.02483985
0.1534	0.02520772
0.1536	0.02559874
0.1538	0.0248299
0.154	0.02450065
0.1542	0.02390747
0.1544	0.02365234
0.1546	0.02264008
0.1548	0.02141494
0.155	0.02008982
0.1552	0.01828782
0.1554	0.01640669
0.1556	0.01490754
0.1558	0.01401771
0.156	0.01251149
0.1562	0.01044624
0.1564	0.009546536
0.1566	0.009159511
0.1568	0.007154266
0.157	0.005168072
0.1572	0.004907106
0.1574	0.004268061
0.1576	0.002724732
0.1578	0.0003719277
0.158	-1.378469e-5
0.1582	0.0001859072
0.1584	-0.001183173
0.1586	-0.003021691
0.1588	-0.004699968
0.159	-0.006417926
0.1592	-0.006808001
0.1594	-0.007627816
0.1596	-0.009630637
0.1598	-0.00965423
0.16	-0.01019466
0.1602	-0.0113718
0.1604	-0.01415896
0.1606	-0.01647745
0.1608	-0.01866208
0.161	-0.01791134
0.1612	-0.01778285
0.1614	-0.01747312
0.1616	-0.01753097
0.1618	-0.02074195
0.162	-0.0238844
0.1622	-0.02432906
0.1624	-0.02332468
0.1626	-0.02408619
0.1628	-0.02597045
0.163	-0.02608318
0.1632	-0.02496624
0.1634	-0.02470328
0.1636	-0.02588961
0.1638	-0.02554736
0.164	-0.02448433
0.1642	-0.02281387
0.1644	-0.0231866
0.1646	-0.02301371
0.1648	-0.02293273
0.165	-0.0221622
0.1652	-0.01969136
0.1654	-0.0176582
0.1656	-0.01544898
0.1658	-0.01334879
0.166	-0.01243733
0.1662	-0.01113246
0.1664	-0.007299988
0.1666	-0.006264043
0.1668	-0.00469279
0.167	-0.003372781
0.1672	-0.0008088334
0.1674	0.001177232
0.1676	0.000208534
0.1678	0.002318006
0.168	0.00369848
0.1682	0.005527005
0.1684	0.007132642
0.1686	0.008208036
0.1688	0.009421072
0.169	0.009316332
0.1692	0.009787424
0.1694	0.01001019
0.1696	0.01058265
0.1698	0.01195993
0.17	0.01185338
0.1702	0.01184946
0.1704	0.01338473
0.1706	0.01452756
0.1708	0.01600303
0.171	0.01780186
0.1712	0.01974448
0.1714	0.01926097
0.1716	0.01835762
0.1718	0.01988102
0.172	0.02245073
0.1722	0.02306348
0.1724	0.02217387
0.1726	0.02176295
0.1728	0.02254819
0.173	0.022596
0.1732	0.02302175
0.1734	0.02442299
0.1736	0.0246895
0.1738	0.02388986
0.174	0.02319981
0.1742	0.02246613
0.1744	0.02062908
0.1746	0.01865396
0.1748	0.01703769
0.175	0.01647579
0.1752	0.01675303
0.1754	0.01666235
0.1756	0.01722597
0.1758	0.01775272
0.176	0.01518593
0.1762	0.01293216
0.1764	0.0113074
0.1766	0.008839935
0.1768	0.006053813
0.177	0.005283332
0.1772	0.00335942
0.1774	0.001265048
0.1776	-0.0006447986
0.1778	-0.002882627
0.178	-0.004677196
0.1782	-0.008954601
0.1784	-0.01205925
0.1786	-0.01152245
0.1788	-0.01402997
0.179	-0.01681183
0.1792	-0.0180492
0.1794	-0.01895771
0.1796	-0.02035406
0.1798	-0.02123393
0.18	-0.02192896
0.1802	-0.02089268
0.1804	-0.02253816
0.1806	-0.0225114
0.1808	-0.02076757
0.181	-0.02088503
0.1812	-0.02192547
0.1814	-0.02394422
0.1816	-0.0246021
0.1818	-0.02356032
0.182	-0.02358731
0.1822	-0.02477894
0.1824	-0.02373495
0.1826	-0.02468975
0.1828	-0.02510359
0.183	-0.0242006
0.1832	-0.02252975
0.1834	-0.02232779
0.1836	-0.02305022
0.1838	-0.02317143
0.184	-0.02269368
0.1842	-0.02091823
0.1844	-0.02026172
0.1846	-0.01987052
0.1848	-0.01961698
0.185	-0.01730658
0.1852	-0.01613986
0.1854	-0.01373515
0.1856	-0.01100531
0.1858	-0.009362627
0.186	-0.007459129
0.1862	-0.006173968
0.1864	-0.003988734
0.1866	-0.0006279855
0.1868	0.00198095
0.187	0.003255584
0.1872	0.004620434
0.1874	0.007537541
0.1876	0.01096755
0.1878	0.01313237
0.188	0.01324709
0.1882	0.01178604
0.1884	0.01149206
0.1886	0.01107485
0.1888	0.009016077
0.189	0.01032041
0.1892	0.01050112
0.1894	0.007356136
0.1896	0.002422088
0.1898	-0.001975683
0.19	-0.00403681
0.1902	-0.00637725
0.1904	-0.006358665
0.1906	-0.00453187
0.1908	-0.003200549
0.191	-0.003219997
0.1912	-0.001908886
0.1914	-0.0003338124
0.1916	0.0007132081
0.1918	0.003033976
0.192	0.005846185
0.1922	0.008390535
0.1924	0.01040577
0.1926	0.01422603
0.1928	0.01618449
0.193	0.01834591
0.1932	0.02128251
0.1934	0.02256694
0.1936	0.02558651
0.1938	0.02718168
0.194	0.02832252
0.1942	0.02871101
0.1944	0.02736598
0.1946	0.02621289
0.1948	0.02499105
0.195	0.02406492
0.1952	0.02241113
0.1954	0.02282274
0.1956	0.02408922
0.1958	0.02418268
0.196	0.02481288
0.1962	0.02624738
0.1964	0.02481454
0.1966	0.02533338
0.1968	0.02516772
0.197	0.02501712
0.1972	0.02330111
0.1974	0.01888636
0.1976	0.01644752
0.1978	0.01362493
0.198	0.01284021
0.1982	0.01261662
0.1984	0.008176343
0.1986	0.004214163
0.1988	6.068455e-5
0.199	-0.003499088
0.1992	-0.006514721
0.1994	-0.008770596
0.1996	-0.009761781
0.1998	-0.009217578
0.2	-0.008047238
0.2002	-0.009353213
0.2004	-0.01171852
0.2006	-0.01218509
0.2008	-0.01223659
0.201	-0.01505995
0.2012	-0.01607461
0.2014	-0.01841079
0.2016	-0.02134448
0.2018	-0.02277065
0.202	-0.0232691
0.2022	-0.02396952
0.2024	-0.02392155
0.2026	-0.02233058
0.2028	-0.02022058
0.203	-0.01950643
0.2032	-0.01962458
0.2034	-0.0194306
0.2036	-0.01947926
0.2038	-0.01951489
0.204	-0.01991661
0.2042	-0.02037192
0.2044	-0.02087764
0.2046	-0.02033808
0.2048	-0.01846289
0.205	-0.01512946
0.2052	-0.01449043
0.2054	-0.01592289
0.2056	-0.01547179
0.2058	-0.0147127
0.206	-0.01378752
0.2062	-0.01124593
0.2064	-0.01036453
0.2066	-0.009288614
0.2068	-0.007230444
0.207	-0.005449511
0.2072	-0.005272281
0.2074	-0.003612078
0.2076	-0.003282622
0.2078	-0.002427459
0.208	0.0002262754
0.2082	0.003222482
0.2084	0.003996275
0.2086	0.006009267
0.2088	0.007794713
0.209	0.008521977
0.2092	0.01027791
0.2094	0.01134969
0.2096	0.01233366
0.2098	0.01410147
0.21	0.01561431
0.2102	0.01644192
0.2104	0.01645852
0.2106	0.01804268
0.2108	0.02061622
0.211	0.02135794
0.2112	0.02183534
0.2114	0.02165485
0.2116	0.01972781
0.2118	0.01954633
0.212	0.02030041
0.2122	0.02171084
0.2124	0.02216903
0.2126	0.02402874
0.2128	0.0258393
0.213	0.02585865
0.2132	0.02411483
0.2134	0.02320531
0.2136	0.02067647
0.2138	0.02004551
0.214	0.0196168
0.2142	0.01920454
0.2144	0.01883941
0.2146	0.01753654
0.2148	0.01577515
0.215	0.01294648
0.2152	0.01238146
0.2154	0.0122223
0.2156	0.009827481
0.2158	0.006643786
0.216	0.005209461
0.2162	0.003254713
0.2164	0.001272737
0.2166	-0.000917805
0.2168	-0.002310343
0.217	-0.003494256
0.2172	-0.005598903
0.2174	-0.007330872
0.2176	-0.009114637
0.2178	-0.01089456
0.218	-0.01153363
0.2182	-0.01236607
0.2184	-0.01353306
0.2186	-0.01579616
0.2188	-0.01582712
0.219	-0.0152392
0.2192	-0.01531622
0.2194	-0.01606909
0.2196	-0.0158959
0.2198	-0.01746981
0.22	-0.01837186
0.2202	-0.01790853
0.2204	-0.01701316
0.2206	-0.01695429
0.2208	-0.01867398
0.221	-0.01975201
0.2212	-0.02093885
0.2214	-0.02072964
0.2216	-0.02136967
0.2218	-0.02219044
0.222	-0.02359894
0.2222	-0.02589966
0.2224	-0.02532776
0.2226	-0.02572393
0.2228	-0.02662504
0.223	-0.02737356
0.2232	-0.02825388
0.2234	-0.02682059
0.2236	-0.02729647
0.2238	-0.02833348
0.224	-0.02700649
0.2242	-0.02479214
0.2244	-0.02375263
0.2246	-0.02330906
0.2248	-0.0226403
0.225	-0.02124285
0.2252	-0.02036884
0.2254	-0.01911077
0.2256	-0.01968394
0.2258	-0.01901132
0.226	-0.01806255
0.2262	-0.01697751
0.2264	-0.01470428
0.2266	-0.01185178
0.2268	-0.01186534
0.227	-0.0113681
0.2272	-0.01120532
0.2274	-0.01112304
0.2276	-0.01102691
0.2278	-0.01084695
0.228	-0.009445559
0.2282	-0.00582596
0.2284	-0.001608772
0.2286	0.001906586
0.2288	0.005154046
0.229	0.007359164
0.2292	0.008467047
0.2294	0.009315942
0.2296	0.01184064
0.2298	0.01464844
0.23	0.01779804
0.2302	0.02422121
0.2304	0.02970281
0.2306	0.03207744
0.2308	0.03606398
0.231	0.04136951
0.2312	0.04615118
0.2314	0.04907845
0.2316	0.04942065
0.2318	0.04970328
0.232	0.05024116
0.2322	0.05009429
0.2324	0.04752001
0.2326	0.04379972
0.2328	0.04066707
0.233	0.03707295
0.2332	0.0334872
0.2334	0.02897538
0.2336	0.0277667
0.2338	0.02639466
0.234	0.0240487
0.2342	0.0211899
0.2344	0.01912157
0.2346	0.01801061
0.2348	0.01797857
0.235	0.01734151
0.2352	0.01749051
0.2354	0.01736857
0.2356	0.01573314
0.2358	0.01237655
0.236	0.01156482
0.2362	0.01114936
0.2364	0.00911771
0.2366	0.006547765
0.2368	0.003881779
0.237	0.00158714
0.2372	-0.0001991792
0.2374	-0.001125877
0.2376	-0.001895747
0.2378	-0.004015013
0.238	-0.004637172
0.2382	-0.006678464
0.2384	-0.008888598
0.2386	-0.009834615
0.2388	-0.01111001
0.239	-0.01269211
0.2392	-0.01356733
0.2394	-0.01447398
0.2396	-0.01438401
0.2398	-0.01409104
0.24	-0.01606557
0.2402	-0.01777706
0.2404	-0.01840675
0.2406	-0.01881325
0.2408	-0.01932794
0.241	-0.02166896
0.2412	-0.02227452
0.2414	-0.02325814
0.2416	-0.02393884
0.2418	-0.02340272
0.242	-0.02358449
0.2422	-0.02441606
0.2424	-0.02418611
0.2426	-0.02277122
0.2428	-0.02206105
0.243	-0.0222902
0.2432	-0.02183974
0.2434	-0.02152274
0.2436	-0.02001038
0.2438	-0.01926809
0.244	-0.01920851
0.2442	-0.01969252
0.2444	-0.02040251
0.2446	-0.02033711
0.2448	-0.01827091
0.245	-0.01547154
0.2452	-0.01508159
0.2454	-0.01397873
0.2456	-0.01124406
0.2458	-0.009691879
0.246	-0.009804356
0.2462	-0.008885466
0.2464	-0.006350619
0.2466	-0.005827232
0.2468	-0.00555655
0.247	-0.005338375
0.2472	-0.004074479
0.2474	-0.001435885
0.2476	0.0002898597
0.2478	0.001824593
0.248	0.002079485
0.2482	0.003422299
0.2484	0.005525139
0.2486	0.00915266
0.2488	0.01142081
0.249	0.0131018
0.2492	0.01407516
0.2494	0.01233745
0.2496	0.01242428
0.2498	0.01339732
0.25	0.01413105
0.2502	0.01521682
0.2504	0.01576798
0.2506	0.0160277
0.2508	0.01661692
0.251	0.01775612
0.2512	0.01821542
0.2514	0.01890869
0.2516	0.01908457
0.2518	0.01792848
0.252	0.01627817
0.2522	0.01722381
0.2524	0.01727875
0.2526	0.01776134
0.2528	0.01764984
0.253	0.01790409
0.2532	0.01822715
0.2534	0.01936013
0.2536	0.01966174
0.2538	0.0191469
0.254	0.01820675
0.2542	0.01762657
0.2544	0.01850316
0.2546	0.01632926
0.2548	0.01468953
0.255	0.01520282
0.2552	0.0139309
0.2554	0.01255071
0.2556	0.01174168
0.2558	0.01028082
0.256	0.01023788
0.2562	0.009089805
0.2564	0.007977597
0.2566	0.00658446
0.2568	0.004121486
0.257	0.003401469
0.2572	0.001845781
0.2574	0.001452593
0.2576	0.0007321848
0.2578	-0.001268569
0.258	-0.001683376
0.2582	-0.003599265
0.2584	-0.005762238
0.2586	-0.007610253
0.2588	-0.009646703
0.259	-0.01042787
0.2592	-0.01031647
0.2594	-0.009880166
0.2596	-0.01238215
0.2598	-0.01457938
0.26	-0.01447124
0.2602	-0.01555533
0.2604	-0.0159505
0.2606	-0.01579063
0.2608	-0.0149335
0.261	-0.01592922
0.2612	-0.0176438
0.2614	-0.01857221
0.2616	-0.01842916
0.2618	-0.01876436
0.262	-0.01833859
0.2622	-0.01989259
0.2624	-0.01929258
0.2626	-0.02003054
0.2628	-0.02203192
0.263	-0.02206574
0.2632	-0.02371862
0.2634	-0.02400245
0.2636	-0.02318395
0.2638	-0.02443031
0.264	-0.02757876
0.2642	-0.02929385
0.2644	-0.03056049
0.2646	-0.03115088
0.2648	-0.02970792
0.265	-0.03022482
0.2652	-0.03104581
0.2654	-0.02984582
0.2656	-0.02807382
0.2658	-0.0244153
0.266	-0.02027491
0.2662	-0.01773166
0.2664	-0.01445119
0.2666	-0.0104076
0.2668	-0.008462397
0.267	-0.006201368
0.2672	-0.002250677
0.2674	0.001576673
0.2676	0.004770137
0.2678	0.007916654
0.268	0.01209246
0.2682	0.01497883
0.2684	0.01539847
0.2686	0.01687706
0.2688	0.01854086
0.269	0.020216
0.2692	0.02297917
0.2694	0.02462833
0.2696	0.02598281
0.2698	0.02581763
0.27	0.0259095
0.2702	0.02590868
0.2704	0.02809177
0.2706	0.02948019
0.2708	0.03037862
0.271	0.03270467
0.2712	0.03393441
0.2714	0.03690973
0.2716	0.03701469
0.2718	0.03456268
0.272	0.03293164
0.2722	0.03300974
0.2724	0.03258353
0.2726	0.02864425
0.2728	0.02534289
0.273	0.02372976
0.2732	0.02094648
0.2734	0.02126615
0.2736	0.02068949
0.2738	0.01843829
0.274	0.01627993
0.2742	0.01463123
0.2744	0.01356453
0.2746	0.01060266
0.2748	0.009210115
0.275	0.008309298
0.2752	0.007527022
0.2754	0.00795001
0.2756	0.006146621
0.2758	0.005553562
0.276	0.003901856
0.2762	0.003669354
0.2764	0.003452433
0.2766	0.002063701
0.2768	0.001222055
0.277	0.000414614
0.2772	0.0001274943
0.2774	-0.001471713
0.2776	-0.00328267
0.2778	-0.005350572
0.278	-0.006957048
0.2782	-0.007287387
0.2784	-0.007712108
0.2786	-0.01074916
0.2788	-0.01328211
0.279	-0.01468148
0.2792	-0.01637668
0.2794	-0.01756216
0.2796	-0.0171854
0.2798	-0.01879355
0.28	-0.02087249
0.2802	-0.02169392
0.2804	-0.0223877
0.2806	-0.0233834
0.2808	-0.02342625
0.281	-0.02391673
0.2812	-0.02455327
0.2814	-0.02412104
0.2816	-0.02345041
0.2818	-0.02403117
0.282	-0.02349324
0.2822	-0.02311035
0.2824	-0.02362135
0.2826	-0.02187891
0.2828	-0.02054937
0.283	-0.01901767
0.2832	-0.01766981
0.2834	-0.01706517
0.2836	-0.01621433
0.2838	-0.01669066
0.284	-0.01746595
0.2842	-0.01638112
0.2844	-0.01643395
0.2846	-0.01546255
0.2848	-0.01406848
0.285	-0.01461365
0.2852	-0.01414347
0.2854	-0.01408557
0.2856	-0.01436094
0.2858	-0.01338398
0.286	-0.01242403
0.2862	-0.01184563
0.2864	-0.01104221
0.2866	-0.009569173
0.2868	-0.007641441
0.287	-0.007074495
0.2872	-0.004815345
0.2874	-0.00302417
0.2876	0.0001284506
0.2878	0.001583035
0.288	0.003378726
0.2882	0.007006406
0.2884	0.01015224
0.2886	0.01300172
0.2888	0.01583251
0.289	0.01699528
0.2892	0.01658329
0.2894	0.01658709
0.2896	0.01741516
0.2898	0.01719085
0.29	0.01722587
0.2902	0.01823013
0.2904	0.01734504
0.2906	0.01730474
0.2908	0.01664413
0.291	0.01629946
0.2912	0.01590806
0.2914	0.01593822
0.2916	0.01594869
0.2918	0.01709269
0.292	0.01914019
0.2922	0.02160944
0.2924	0.02184143
0.2926	0.02133498
0.2928	0.02014393
0.293	0.0191629
0.2932	0.01934644
0.2934	0.01893051
0.2936	0.01834465
0.2938	0.01896853
0.294	0.01769862
0.2942	0.01649251
0.2944	0.01652321
0.2946	0.01640669
0.2948	0.01515392
0.295	0.0138074
0.2952	0.01324288
0.2954	0.01298895
0.2956	0.01224276
0.2958	0.01082318
0.296	0.00907381
0.2962	0.008133053
0.2964	0.007235745
0.2966	0.007215971
0.2968	0.006622998
0.297	0.006370167
0.2972	0.004433238
0.2974	0.0007447057
0.2976	-0.001161202
0.2978	-0.00297095
0.298	-0.003892807
0.2982	-0.005785973
0.2984	-0.006693847
0.2986	-0.008684451
0.2988	-0.01003688
0.299	-0.01071592
0.2992	-0.01160457
0.2994	-0.01175952
0.2996	-0.01178426
0.2998	-0.01365118
0.3	-0.01560915
0.3002	-0.01588726
0.3004	-0.01546026
0.3006	-0.01440566
0.3008	-0.01546548
0.301	-0.01741833
0.3012	-0.01863303
0.3014	-0.01831306
0.3016	-0.01798662
0.3018	-0.01878898
0.302	-0.01852525
0.3022	-0.01884236
0.3024	-0.02038837
0.3026	-0.01979122
0.3028	-0.01825257
0.303	-0.01824469
0.3032	-0.01791298
0.3034	-0.01800421
0.3036	-0.01887296
0.3038	-0.01887383
0.304	-0.01827821
0.3042	-0.01759375
0.3044	-0.01638101
0.3046	-0.01632899
0.3048	-0.0147942
0.305	-0.01455999
0.3052	-0.01346741
0.3054	-0.01197251
0.3056	-0.0123895
0.3058	-0.01150631
0.306	-0.008675686
0.3062	-0.007223097
0.3064	-0.006371853
0.3066	-0.005292082
0.3068	-0.004411008
0.307	-0.003934029
0.3072	-0.004261581
0.3074	-0.004292435
0.3076	-0.002332245
0.3078	0.001793089
0.308	0.003191856
0.3082	0.003864694
0.3084	0.005055368
0.3086	0.004736654
0.3088	0.005582941
0.309	0.005089123
0.3092	0.004240213
0.3094	0.00657844
0.3096	0.007398809
0.3098	0.00628822
0.31	0.007852837
0.3102	0.009772268
0.3104	0.01034648
0.3106	0.01098827
0.3108	0.01270796
0.311	0.01271596
0.3112	0.01345822
0.3114	0.01536808
0.3116	0.01609691
0.3118	0.0169723
0.312	0.01889886
0.3122	0.021352
0.3124	0.02235566
0.3126	0.02354029
0.3128	0.02396237
0.313	0.02340119
0.3132	0.02370166
0.3134	0.02458016
0.3136	0.02434071
0.3138	0.02400278
0.314	0.02484988
0.3142	0.02583621
0.3144	0.02615626
0.3146	0.02530532
0.3148	0.02248218
0.315	0.02072708
0.3152	0.01909848
0.3154	0.01651935
0.3156	0.01410436
0.3158	0.01241712
0.316	0.01063984
0.3162	0.009156389
0.3164	0.006790081
0.3166	0.005374977
0.3168	0.004091009
0.317	0.002877832
0.3172	0.000616702
0.3174	-0.0003510602
0.3176	-0.002417037
0.3178	-0.004194426
0.318	-0.005477588
0.3182	-0.006129254
0.3184	-0.007472246
0.3186	-0.007005226
0.3188	-0.008226584
0.319	-0.009621402
0.3192	-0.01071131
0.3194	-0.009855966
0.3196	-0.008023393
0.3198	-0.006927088
0.32	-0.007146807
0.3202	-0.007254494
0.3204	-0.006100729
0.3206	-0.005272999
0.3208	-0.005256828
0.321	-0.004185018
0.3212	-0.005146021
0.3214	-0.007775147
0.3216	-0.01128253
0.3218	-0.01299362
0.322	-0.01478521
0.3222	-0.01574159
0.3224	-0.01569554
0.3226	-0.01648295
0.3228	-0.01837739
0.323	-0.01891487
0.3232	-0.01902133
0.3234	-0.01867799
0.3236	-0.0187683
0.3238	-0.01887475
0.324	-0.01931255
0.3242	-0.01941023
0.3244	-0.01947597
0.3246	-0.02031454
0.3248	-0.01955752
0.325	-0.02067308
0.3252	-0.01985287
0.3254	-0.01882118
0.3256	-0.0176662
0.3258	-0.01679482
0.326	-0.01519561
0.3262	-0.01426482
0.3264	-0.01362163
0.3266	-0.01228842
0.3268	-0.01123663
0.327	-0.009029893
0.3272	-0.006924812
0.3274	-0.003800007
0.3276	-0.00203882
0.3278	-0.000313801
0.328	0.002120862
0.3282	0.003220014
0.3284	0.00405276
0.3286	0.005731508
0.3288	0.007766774
0.329	0.01085388
0.3292	0.01192159
0.3294	0.01203372
0.3296	0.01336372
0.3298	0.01402102
0.33	0.01516764
0.3302	0.0167683
0.3304	0.01707838
0.3306	0.01807855
0.3308	0.01910477
0.331	0.02003891
0.3312	0.02069374
0.3314	0.02128238
0.3316	0.02160439
0.3318	0.02124919
0.332	0.02173075
0.3322	0.02076218
0.3324	0.02038584
0.3326	0.01920155
0.3328	0.01789693
0.333	0.01705029
0.3332	0.01618097
0.3334	0.0155901
0.3336	0.01462064
0.3338	0.01440129
0.334	0.0126697
0.3342	0.01288819
0.3344	0.01214021
0.3346	0.01102848
0.3348	0.01064889
0.335	0.009465309
0.3352	0.00803237
0.3354	0.005481182
0.3356	0.005089576
0.3358	0.004756177
0.336	0.004432524
0.3362	0.004580385
0.3364	0.004642038
0.3366	0.004149526
0.3368	0.003595956
0.337	0.003686052
0.3372	0.00381649
0.3374	0.001443501
0.3376	-0.001089785
0.3378	-0.001772846
0.338	-0.002147545
0.3382	-0.003428848
0.3384	-0.004983142
0.3386	-0.008134139
0.3388	-0.01107726
0.339	-0.01196306
0.3392	-0.01214439
0.3394	-0.01235141
0.3396	-0.01242764
0.3398	-0.01106656
0.34	-0.01121433
0.3402	-0.01058853
0.3404	-0.01079075
0.3406	-0.01143033
0.3408	-0.009972165
0.341	-0.011605
0.3412	-0.01166492
0.3414	-0.01034084
0.3416	-0.01050389
0.3418	-0.01158474
0.342	-0.01240015
0.3422	-0.01396531
0.3424	-0.01673153
0.3426	-0.01729048
0.3428	-0.01676102
0.343	-0.01888705
0.3432	-0.02126563
0.3434	-0.02127923
0.3436	-0.02096548
0.3438	-0.02160089
0.344	-0.02133686
0.3442	-0.01939267
0.3444	-0.01816243
0.3446	-0.01931284
0.3448	-0.01860137
0.345	-0.01710157
0.3452	-0.01652872
0.3454	-0.01704956
0.3456	-0.01599532
0.3458	-0.01433188
0.346	-0.01445552
0.3462	-0.01324777
0.3464	-0.009112902
0.3466	-0.007044422
0.3468	-0.006495331
0.347	-0.005252201
0.3472	-0.003707031
0.3474	-0.003871123
0.3476	-0.002085914
0.3478	-3.008737e-5
0.348	0.003268538
0.3482	0.00407975
0.3484	0.005574037
0.3486	0.007394582
0.3488	0.009387316
0.349	0.01049019
0.3492	0.01059313
0.3494	0.01192792
0.3496	0.01310859
0.3498	0.0139823
0.35	0.01609842
0.3502	0.01775381
0.3504	0.01841993
0.3506	0.01760296
0.3508	0.01933327
0.351	0.02119745
0.3512	0.02303909
0.3514	0.02472381
0.3516	0.02585552
0.3518	0.0277875
0.352	0.0297331
0.3522	0.02972472
0.3524	0.02907237
0.3526	0.02737969
0.3528	0.02705128
0.353	0.02367207
0.3532	0.02134272
0.3534	0.01778944
0.3536	0.01631615
0.3538	0.0162634
0.354	0.01496207
0.3542	0.01488703
0.3544	0.01393783
0.3546	0.01170433
0.3548	0.01047924
0.355	0.0092037
0.3552	0.01014367
0.3554	0.01091806
0.3556	0.0103313
0.3558	0.009917443
0.356	0.009504302
0.3562	0.007833567
0.3564	0.007325258
0.3566	0.00606485
0.3568	0.005583415
0.357	0.005174544
0.3572	0.00273611
0.3574	0.0009098557
0.3576	-0.0003903362
0.3578	-0.002044601
0.358	-0.003597271
0.3582	-0.003782565
0.3584	-0.007074954
0.3586	-0.009202552
0.3588	-0.01028001
0.359	-0.01302931
0.3592	-0.01482716
0.3594	-0.01618294
0.3596	-0.01586748
0.3598	-0.0157565
0.36	-0.01752668
0.3602	-0.01754182
0.3604	-0.01802262
0.3606	-0.01985831
0.3608	-0.01979674
0.361	-0.02108807
0.3612	-0.02191768
0.3614	-0.02344424
0.3616	-0.02463851
0.3618	-0.02370759
0.362	-0.02333916
0.3622	-0.02431823
0.3624	-0.02351057
0.3626	-0.02073126
0.3628	-0.0181899
0.363	-0.0174247
0.3632	-0.01741512
0.3634	-0.0170336
0.3636	-0.01801494
0.3638	-0.01710594
0.364	-0.01577356
0.3642	-0.0143034
0.3644	-0.01361911
0.3646	-0.01254885
0.3648	-0.01136306
0.365	-0.01139314
0.3652	-0.01066096
0.3654	-0.009537314
0.3656	-0.008249793
0.3658	-0.006823863
0.366	-0.004342911
0.3662	-0.003506161
0.3664	-0.001049685
0.3666	0.0002076826
0.3668	0.0006318683
0.367	0.001318664
0.3672	0.001662913
0.3674	0.00357468
0.3676	0.005123518
0.3678	0.004909803
0.368	0.008008958
0.3682	0.01034317
0.3684	0.01179389
0.3686	0.01335059
0.3688	0.01422913
0.369	0.01398179
0.3692	0.01332805
0.3694	0.01464448
0.3696	0.01606813
0.3698	0.01568145
0.37	0.0153395
0.3702	0.01447237
0.3704	0.01376442
0.3706	0.0141412
0.3708	0.01379293
0.371	0.01416252
0.3712	0.01562634
0.3714	0.01494428
0.3716	0.01503927
0.3718	0.01482944
0.372	0.01424914
0.3722	0.01500858
0.3724	0.01554984
0.3726	0.01680464
0.3728	0.0175705
0.373	0.01660492
0.3732	0.01483475
0.3734	0.01253678
0.3736	0.01263224
0.3738	0.01191648
0.374	0.009985845
0.3742	0.008869322
0.3744	0.008936561
0.3746	0.008874096
0.3748	0.009191656
0.375	0.008459904
0.3752	0.007900865
0.3754	0.007873608
0.3756	0.00654992
0.3758	0.005325425
0.376	0.003882116
0.3762	0.003906936
0.3764	0.00272372
0.3766	0.0004316499
0.3768	-0.000143509
0.377	-0.0004590467
0.3772	-0.001683423
0.3774	-0.003343789
0.3776	-0.003911443
0.3778	-0.004893036
0.378	-0.006056034
0.3782	-0.006677485
0.3784	-0.00714535
0.3786	-0.009676151
0.3788	-0.0111261
0.379	-0.01075795
0.3792	-0.01197143
0.3794	-0.01025212
0.3796	-0.009088453
0.3798	-0.01053583
0.38	-0.01122716
0.3802	-0.01071581
0.3804	-0.01224494
0.3806	-0.01330908
0.3808	-0.01380429
0.381	-0.01471251
0.3812	-0.01487517
0.3814	-0.01531371
0.3816	-0.01731393
0.3818	-0.01791881
0.382	-0.01757224
0.3822	-0.01642779
0.3824	-0.0171252
0.3826	-0.01795414
0.3828	-0.01793628
0.383	-0.01687589
0.3832	-0.01712264
0.3834	-0.0171282
0.3836	-0.01721051
0.3838	-0.01649955
0.384	-0.01590564
0.3842	-0.01401502
0.3844	-0.01167076
0.3846	-0.01142727
0.3848	-0.01034083
0.385	-0.008415991
0.3852	-0.008963879
0.3854	-0.009107172
0.3856	-0.00788652
0.3858	-0.006390283
0.386	-0.004325321
0.3862	-0.004280678
0.3864	-0.003159781
0.3866	-0.00288082
0.3868	-0.001584573
0.387	-0.001829511
0.3872	0.0005587725
0.3874	0.001547974
0.3876	0.003877092
0.3878	0.005669142
0.388	0.006301161
0.3882	0.00722365
0.3884	0.007622282
0.3886	0.007745942
0.3888	0.008287698
0.389	0.009639566
0.3892	0.01054213
0.3894	0.01061232
0.3896	0.01188301
0.3898	0.01386109
0.39	0.01445917
0.3902	0.01431232
0.3904	0.01370724
0.3906	0.01493697
0.3908	0.01585626
0.391	0.01625806
0.3912	0.01683448
0.3914	0.01490266
0.3916	0.01507391
0.3918	0.01579246
0.392	0.01749412
0.3922	0.01926222
0.3924	0.02103708
0.3926	0.01994702
0.3928	0.01808262
0.393	0.0186055
0.3932	0.01854576
0.3934	0.01789677
0.3936	0.01767555
0.3938	0.01544489
0.394	0.01279231
0.3942	0.01269262
0.3944	0.01283483
0.3946	0.01256385
0.3948	0.01193383
0.395	0.01277287
0.3952	0.01178677
0.3954	0.01025919
0.3956	0.009371514
0.3958	0.009408226
0.396	0.008457388
0.3962	0.00689197
0.3964	0.006477089
0.3966	0.006027633
0.3968	0.00499843
0.397	0.003636766
0.3972	0.00198825
0.3974	0.0002384474
0.3976	-0.001390174
0.3978	-0.001358247
0.398	-0.002305889
0.3982	-0.002203397
0.3984	-0.003281876
0.3986	-0.006858993
0.3988	-0.007057912
0.399	-0.005453405
0.3992	-0.007223283
0.3994	-0.008248078
0.3996	-0.008123207
0.3998	-0.01004217
0.4	-0.01089864
0.4002	-0.01226277
0.4004	-0.01185444
0.4006	-0.01291478
0.4008	-0.01418581
0.401	-0.01467643
0.4012	-0.01439365
0.4014	-0.01416643
0.4016	-0.01565942
0.4018	-0.01571004
0.402	-0.01681077
0.4022	-0.01825897
0.4024	-0.01856539
0.4026	-0.01895277
0.4028	-0.02098252
0.403	-0.02117903
0.4032	-0.02033651
0.4034	-0.02045057
0.4036	-0.01957702
0.4038	-0.01745968
0.404	-0.01708659
0.4042	-0.01516206
0.4044	-0.01371066
0.4046	-0.0122541
0.4048	-0.009519284
0.405	-0.009742385
0.4052	-0.01124651
0.4054	-0.01193035
0.4056	-0.01024054
0.4058	-0.01001344
0.406	-0.009419302
0.4062	-0.00888697
0.4064	-0.007267583
0.4066	-0.004919167
0.4068	-0.005428816
0.407	-0.00532369
0.4072	-0.005172612
0.4074	-0.004076915
0.4076	-0.002401364
0.4078	-0.001226909
0.408	-0.0004074567
0.4082	0.001392692
0.4084	0.003058348
0.4086	0.003025971
0.4088	0.004766931
0.409	0.005646255
0.4092	0.00770724
0.4094	0.009831627
0.4096	0.01167643
0.4098	0.0117158
0.41	0.01118718
0.4102	0.01169095
0.4104	0.01359716
0.4106	0.01583617
0.4108	0.01673764
0.411	0.01829561
0.4112	0.0184275
0.4114	0.0194069
0.4116	0.01950892
0.4118	0.01873115
0.412	0.01803025
0.4122	0.01761221
0.4124	0.01739077
0.4126	0.01728078
0.4128	0.01688268
0.413	0.01566219
0.4132	0.01697902
0.4134	0.01577699
0.4136	0.01537812
0.4138	0.01487197
0.414	0.01366229
0.4142	0.01333508
0.4144	0.01142256
0.4146	0.011132
0.4148	0.01008725
0.415	0.01015822
0.4152	0.00922583
0.4154	0.008703095
0.4156	0.007662723
0.4158	0.005578645
0.416	0.006783583
0.4162	0.00823454
0.4164	0.005996019
0.4166	0.003883926
0.4168	0.003021104
0.417	0.001127415
0.4172	-0.0001420287
0.4174	-0.002318862
0.4176	-0.003139697
0.4178	-0.005130448
0.418	-0.006556357
0.4182	-0.007066649
0.4184	-0.006858518
0.4186	-0.00759096
0.4188	-0.008460105
0.419	-0.008974185
0.4192	-0.009546444
0.4194	-0.009484964
0.4196	-0.009533729
0.4198	-0.009923943
0.42	-0.01036575
0.4202	-0.01130847
0.4204	-0.01142809
0.4206	-0.01129267
0.4208	-0.01237153
0.421	-0.01383496
0.4212	-0.01453973
0.4214	-0.01438483
0.4216	-0.01423046
0.4218	-0.01366987
0.422	-0.01223551
0.4222	-0.01226034
0.4224	-0.01369327
0.4226	-0.01495702
0.4228	-0.01486144
0.423	-0.01414311
0.4232	-0.01397926
0.4234	-0.0144247
0.4236	-0.01426145
0.4238	-0.01317523
0.424	-0.01270643
0.4242	-0.01197099
0.4244	-0.01121011
0.4246	-0.01156865
0.4248	-0.01285017
0.425	-0.01713056
0.4252	-0.02155844
0.4254	-0.02443762
0.4256	-0.02655477
0.4258	-0.02690329
0.426	-0.02693474
0.4262	-0.02624224
0.4264	-0.02447308
0.4266	-0.02183825
0.4268	-0.01937062
0.427	-0.01819594
0.4272	-0.01511182
0.4274	-0.01137325
0.4276	-0.00688571
0.4278	-0.002174417
0.428	0.001143047
0.4282	0.004858753
0.4284	0.008522675
0.4286	0.01140457
0.4288	0.01298351
0.429	0.01619406
0.4292	0.01867938
0.4294	0.0209222
0.4296	0.0228742
0.4298	0.02323661
0.43	0.02389114
0.4302	0.02429541
0.4304	0.02478267
0.4306	0.02707918
0.4308	0.02854777
0.431	0.02871531
0.4312	0.02757791
0.4314	0.02924437
0.4316	0.03008152
0.4318	0.02995257
0.432	0.03140024
0.4322	0.0329303
0.4324	0.03430769
0.4326	0.03421746
0.4328	0.03354815
0.433	0.03350418
0.4332	0.03305459
0.4334	0.03066125
0.4336	0.0295126
0.4338	0.02808919
0.434	0.02566231
0.4342	0.02196674
0.4344	0.01893014
0.4346	0.01651779
0.4348	0.01433985
0.435	0.013672
0.4352	0.01395373
0.4354	0.01113865
0.4356	0.01131886
0.4358	0.009948968
0.436	0.008060162
0.4362	0.005206141
0.4364	0.002587606
0.4366	0.000420597
0.4368	-0.001431528
0.437	-0.002454028
0.4372	-0.004533493
0.4374	-0.005549863
0.4376	-0.006254084
0.4378	-0.007142713
0.438	-0.008261628
0.4382	-0.01004927
0.4384	-0.01202457
0.4386	-0.01309791
0.4388	-0.01331982
0.439	-0.01395606
0.4392	-0.01555149
0.4394	-0.01733598
0.4396	-0.01783458
0.4398	-0.0192023
0.44	-0.02044886
0.4402	-0.01931799
0.4404	-0.01931163
0.4406	-0.02111809
0.4408	-0.02246121
0.441	-0.02129146
0.4412	-0.02039489
0.4414	-0.0210482
0.4416	-0.02166754
0.4418	-0.02048342
0.442	-0.02065574
0.4422	-0.02102971
0.4424	-0.02046994
0.4426	-0.02150477
0.4428	-0.01990317
0.443	-0.01859839
0.4432	-0.01946655
0.4434	-0.02013634
0.4436	-0.01984705
0.4438	-0.0181937
0.444	-0.01714898
0.4442	-0.01798702
0.4444	-0.01822666
0.4446	-0.01597257
0.4448	-0.0141238
0.445	-0.01289687
0.4452	-0.01135619
0.4454	-0.01122429
0.4456	-0.01080301
0.4458	-0.009079231
0.446	-0.006695821
0.4462	-0.004349885
0.4464	-0.00412208
0.4466	-0.003600355
0.4468	-0.001543515
0.447	-0.000471178
0.4472	-0.0007418247
0.4474	-0.0004239721
0.4476	0.001504262
0.4478	0.002954628
0.448	0.004584952
0.4482	0.006020737
0.4484	0.007267052
0.4486	0.005695446
0.4488	0.007249754
0.449	0.009665437
0.4492	0.009316004
0.4494	0.008135238
0.4496	0.008727573
0.4498	0.009862781
0.45	0.009228309
0.4502	0.00994143
0.4504	0.01095654
0.4506	0.01234797
0.4508	0.01261965
0.451	0.01163966
0.4512	0.01110922
0.4514	0.01016121
0.4516	0.01195465
0.4518	0.01532681
0.452	0.01645873
0.4522	0.01714915
0.4524	0.01701435
0.4526	0.01760448
0.4528	0.01884797
0.453	0.02097611
0.4532	0.02051261
0.4534	0.01931329
0.4536	0.01948915
0.4538	0.01799769
0.454	0.01509175
0.4542	0.01326087
0.4544	0.01310054
0.4546	0.01343324
0.4548	0.01304737
0.455	0.01216869
0.4552	0.01151865
0.4554	0.009342161
0.4556	0.008098727
0.4558	0.008332018
0.456	0.007311406
0.4562	0.004783027
0.4564	0.003040991
0.4566	0.001960656
0.4568	-0.001666536
0.457	-0.002680385
0.4572	-0.003815568
0.4574	-0.005956449
0.4576	-0.006957097
0.4578	-0.007733059
0.458	-0.007727445
0.4582	-0.006709586
0.4584	-0.007869673
0.4586	-0.008538825
0.4588	-0.008867175
0.459	-0.01001314
0.4592	-0.01196387
0.4594	-0.01345178
0.4596	-0.01341728
0.4598	-0.01397087
0.46	-0.01392408
0.4602	-0.01546596
0.4604	-0.01662433
0.4606	-0.01504846
0.4608	-0.01266384
0.461	-0.0148734
0.4612	-0.0156448
0.4614	-0.01477618
0.4616	-0.01679502
0.4618	-0.01646755
0.462	-0.01648015
0.4622	-0.01579677
0.4624	-0.01628188
0.4626	-0.01694065
0.4628	-0.01671797
0.463	-0.01651688
0.4632	-0.01605584
0.4634	-0.01646694
0.4636	-0.01710271
0.4638	-0.01717487
0.464	-0.01524156
0.4642	-0.01414086
0.4644	-0.01216136
0.4646	-0.0111075
0.4648	-0.009528514
0.465	-0.008334889
0.4652	-0.004982252
0.4654	-0.003028399
0.4656	-0.002879253
0.4658	-0.002970884
0.466	-0.003691861
0.4662	-0.003453314
0.4664	-0.002189869
0.4666	-0.001696644
0.4668	-0.0005704208
0.467	0.0008817503
0.4672	0.0005335333
0.4674	0.001641294
0.4676	0.003712245
0.4678	0.005569405
0.468	0.006089249
0.4682	0.006644611
0.4684	0.007164665
0.4686	0.007522105
0.4688	0.009751665
0.469	0.01062209
0.4692	0.01026074
0.4694	0.01223052
0.4696	0.01324872
0.4698	0.01220344
0.47	0.01358474
0.4702	0.01364033
0.4704	0.01315711
0.4706	0.01454528
0.4708	0.01467646
0.471	0.01540968
0.4712	0.0154947
0.4714	0.01598403
0.4716	0.01688594
0.4718	0.01547022
0.472	0.01599026
0.4722	0.01608361
0.4724	0.01486595
0.4726	0.01636148
0.4728	0.01749747
0.473	0.01773388
0.4732	0.01721887
0.4734	0.01583535
0.4736	0.01539922
0.4738	0.01375255
0.474	0.01308934
0.4742	0.01297233
0.4744	0.01253306
0.4746	0.0106671
0.4748	0.01036778
0.475	0.01022003
0.4752	0.008272367
0.4754	0.009317746
0.4756	0.0103426
0.4758	0.008769997
0.476	0.006005337
0.4762	0.003404824
0.4764	0.002324546
0.4766	0.001775126
0.4768	0.002986674
0.477	0.0009440436
0.4772	-0.0002358408
0.4774	-7.979691e-6
0.4776	-0.001356783
0.4778	-0.001996623
0.478	-0.003447563
0.4782	-0.004734798
0.4784	-0.007372056
0.4786	-0.009222229
0.4788	-0.01083908
0.479	-0.01149314
0.4792	-0.01034467
0.4794	-0.01074672
0.4796	-0.01177949
0.4798	-0.01262022
0.48	-0.01315244
0.4802	-0.01334142
0.4804	-0.01280834
0.4806	-0.0144562
0.4808	-0.01442052
0.481	-0.01624405
0.4812	-0.01697579
0.4814	-0.01615856
0.4816	-0.01634931
0.4818	-0.0160641
0.482	-0.01642945
0.4822	-0.0169793
0.4824	-0.01704175
0.4826	-0.01680895
0.4828	-0.0175702
0.483	-0.01810941
0.4832	-0.01707836
0.4834	-0.01552023
0.4836	-0.01567375
0.4838	-0.01522179
0.484	-0.01396562
0.4842	-0.01222586
0.4844	-0.01024043
0.4846	-0.01083772
0.4848	-0.009970651
0.485	-0.008532071
0.4852	-0.00826658
0.4854	-0.005801782
0.4856	-0.004946345
0.4858	-0.004985004
0.486	-0.00367289
0.4862	-0.002893287
0.4864	-0.001763146
0.4866	-0.001068026
0.4868	-0.001204244
0.487	0.0001054957
0.4872	0.0008422276
0.4874	0.002774813
0.4876	0.004589251
0.4878	0.005650488
0.488	0.007244906
0.4882	0.007965804
0.4884	0.008481641
0.4886	0.009233676
0.4888	0.01022458
0.489	0.009998072
0.4892	0.008884389
0.4894	0.009991229
0.4896	0.01240254
0.4898	0.01384254
0.49	0.01383152
0.4902	0.01395294
0.4904	0.01351336
0.4906	0.0143555
0.4908	0.01581115
0.491	0.01538302
0.4912	0.01767153
0.4914	0.0182643
0.4916	0.01688986
0.4918	0.01704959
0.492	0.01600795
0.4922	0.01531783
0.4924	0.01744386
0.4926	0.01891096
0.4928	0.01879388
0.493	0.01837187
0.4932	0.01802922
0.4934	0.01734401
0.4936	0.01769812
0.4938	0.0178129
0.494	0.01585205
0.4942	0.01515002
0.4944	0.01371777
0.4946	0.01268966
0.4948	0.01212612
0.495	0.01057069
0.4952	0.01023101
0.4954	0.009603189
0.4956	0.009447855
0.4958	0.008927012
0.496	0.007356781
0.4962	0.005446947
0.4964	0.00556464
0.4966	0.00364754
0.4968	0.002078346
0.497	-0.0001794457
0.4972	-0.00220153
0.4974	-0.001833124
0.4976	-0.004122229
0.4978	-0.00801197
0.498	-0.008181274
0.4982	-0.00946523
0.4984	-0.01206881
0.4986	-0.01336347
0.4988	-0.01451328
0.499	-0.01389338
0.4992	-0.01361533
0.4994	-0.01524722
0.4996	-0.01585637
0.4998	-0.01505855
0.5	-0.01500737
0.5002	-0.01374804
0.5004	-0.01390964
0.5006	-0.01374252
0.5008	-0.01389321
0.501	-0.01395818
0.5012	-0.01548677
0.5014	-0.01588554
0.5016	-0.0174965
0.5018	-0.01723989
0.502	-0.01786119
0.5022	-0.01794605
0.5024	-0.01673032
0.5026	-0.01688875
0.5028	-0.01747194
0.503	-0.01504024
0.5032	-0.01622768
0.5034	-0.0182039
0.5036	-0.01690545
0.5038	-0.0165338
0.504	-0.01696164
0.5042	-0.01768246
0.5044	-0.01693892
0.5046	-0.0154052
0.5048	-0.01358171
0.505	-0.01193297
0.5052	-0.01188572
0.5054	-0.01099024
0.5056	-0.01061644
0.5058	-0.008275173
0.506	-0.006764965
0.5062	-0.005736166
0.5064	-0.003234804
0.5066	-0.0003248362
0.5068	0.001495253
0.507	0.002190404
0.5072	0.004320187
0.5074	0.006139196
0.5076	0.006505842
0.5078	0.008566388
0.508	0.008255502
0.5082	0.0102417
0.5084	0.01151787
0.5086	0.01165227
0.5088	0.01364111
0.509	0.01478708
0.5092	0.0160515
0.5094	0.01723352
0.5096	0.01843681
0.5098	0.01961135
0.51	0.02003139
0.5102	0.0187673
0.5104	0.01913353
0.5106	0.01993796
0.5108	0.02011087
0.511	0.02049654
0.5112	0.02170513
0.5114	0.02067474
0.5116	0.01907067
0.5118	0.01839596
0.512	0.01769532
0.5122	0.01755761
0.5124	0.01649505
0.5126	0.01591351
0.5128	0.01556165
0.513	0.01450557
0.5132	0.01430046
0.5134	0.01209022
0.5136	0.009883671
0.5138	0.01047925
0.514	0.01061247
0.5142	0.009300481
0.5144	0.009207232
0.5146	0.008890904
0.5148	0.006877428
0.515	0.006083823
0.5152	0.00545445
0.5154	0.004148579
0.5156	0.003440226
0.5158	0.002440594
0.516	0.001571887
0.5162	-0.0006590547
0.5164	-0.001862056
0.5166	-0.002282254
0.5168	-0.004506315
0.517	-0.00541581
0.5172	-0.006900642
0.5174	-0.008501714
0.5176	-0.009078897
0.5178	-0.008852793
0.518	-0.009094485
0.5182	-0.01051814
0.5184	-0.01260648
0.5186	-0.01262154
0.5188	-0.01320314
0.519	-0.0152484
0.5192	-0.01493689
0.5194	-0.01345531
0.5196	-0.01414858
0.5198	-0.01486349
0.52	-0.0142993
0.5202	-0.01424117
0.5204	-0.0158875
0.5206	-0.01782506
0.5208	-0.01786095
0.521	-0.01704453
0.5212	-0.01731438
0.5214	-0.01749917
0.5216	-0.0188207
0.5218	-0.01937052
0.522	-0.01792508
0.5222	-0.01880647
0.5224	-0.01931304
0.5226	-0.01802692
0.5228	-0.01761291
0.523	-0.01580208
0.5232	-0.01369482
0.5234	-0.01433695
0.5236	-0.01434417
0.5238	-0.01424905
0.524	-0.01163783
0.5242	-0.008952295
0.5244	-0.00542358
0.5246	-0.003612604
0.5248	-0.001627565
0.525	-0.0002988109
0.5252	0.0008620691
0.5254	0.001522393
0.5256	0.002427812
0.5258	0.003647775
0.526	0.003274845
0.5262	0.003226587
0.5264	0.003788859
0.5266	0.002462595
0.5268	0.0009312792
0.527	0.001176198
0.5272	0.001865261
0.5274	0.002357934
0.5276	0.001950022
0.5278	0.002335319
0.528	0.002930651
0.5282	0.00369316
0.5284	0.005103123
0.5286	0.006909676
0.5288	0.007284588
0.529	0.007557909
0.5292	0.00737094
0.5294	0.009101591
0.5296	0.008564199
0.5298	0.007888827
0.53	0.00688517
0.5302	0.005663691
0.5304	0.006692029
0.5306	0.007963834
0.5308	0.008083632
0.531	0.009417089
0.5312	0.01182672
0.5314	0.01426999
0.5316	0.01837589
0.5318	0.02042524
0.532	0.02168238
0.5322	0.02244631
0.5324	0.02266616
0.5326	0.02249865
0.5328	0.02225158
0.533	0.02177338
0.5332	0.01945216
0.5334	0.01789886
0.5336	0.01627812
0.5338	0.01537019
0.534	0.01305528
0.5342	0.008985393
0.5344	0.005738204
0.5346	0.002956521
0.5348	0.0009313258
0.535	0.0001463993
0.5352	2.722804e-5
0.5354	-0.002067046
0.5356	-0.003825359
0.5358	-0.006267116
0.536	-0.009375414
0.5362	-0.01477852
0.5364	-0.01941738
0.5366	-0.02105169
0.5368	-0.02225108
0.537	-0.02199499
0.5372	-0.02052717
0.5374	-0.01907277
0.5376	-0.01792331
0.5378	-0.01680553
0.538	-0.01421816
0.5382	-0.01132287
0.5384	-0.007514934
0.5386	-0.004119184
0.5388	0.00111639
0.539	0.005228666
0.5392	0.01004332
0.5394	0.01315634
0.5396	0.01224602
0.5398	0.01172176
0.54	0.0127725
0.5402	0.0124028
0.5404	0.01142163
0.5406	0.01061373
0.5408	0.009620485
0.541	0.009564778
0.5412	0.007013943
0.5414	0.007296602
0.5416	0.007064811
0.5418	0.003798608
0.542	0.002214628
0.5422	-0.0001915536
0.5424	-0.002526588
0.5426	-0.004727571
0.5428	-0.004992692
0.543	-0.003488265
0.5432	-0.002030421
0.5434	0.0002370578
0.5436	0.001017428
0.5438	0.0005071262
0.544	0.001511478
0.5442	0.001819756
0.5444	-0.0003745563
0.5446	-0.002031986
0.5448	-0.004557045
0.545	-0.007314669
0.5452	-0.01093539
0.5454	-0.01424416
0.5456	-0.01529223
0.5458	-0.01567969
0.546	-0.01764635
0.5462	-0.01659258
0.5464	-0.01494954
0.5466	-0.01359408
0.5468	-0.01172675
0.547	-0.008447627
0.5472	-0.005944983
0.5474	-0.003322751
0.5476	-0.002316742
0.5478	-0.0007170584
0.548	0.0003073039
0.5482	0.001906033
0.5484	0.002126795
0.5486	0.003004172
0.5488	0.005219572
0.549	0.006658513
0.5492	0.006650277
0.5494	0.005547056
0.5496	0.005572865
0.5498	0.00497084
0.55	0.00353444
0.5502	0.003393843
0.5504	0.003556179
0.5506	0.004260097
0.5508	0.005971369
0.551	0.008984242
0.5512	0.009556846
0.5514	0.01126087
0.5516	0.01253137
0.5518	0.01393651
0.552	0.01532085
0.5522	0.01535118
0.5524	0.0162758
0.5526	0.01705117
0.5528	0.01630948
0.553	0.01531371
0.5532	0.01628212
0.5534	0.01627296
0.5536	0.0157942
0.5538	0.01423647
0.554	0.01405383
0.5542	0.01295026
0.5544	0.01228021
0.5546	0.01175474
0.5548	0.01083567
0.555	0.009139373
0.5552	0.007532514
0.5554	0.006808307
0.5556	0.005890578
0.5558	0.003122647
0.556	0.002869466
0.5562	0.002379349
0.5564	0.000578157
0.5566	-3.670087e-5
0.5568	0.0004041899
0.557	0.0002067821
0.5572	-0.00152437
0.5574	-0.002923256
0.5576	-0.005133768
0.5578	-0.006366316
0.558	-0.00768375
0.5582	-0.007906421
0.5584	-0.01018527
0.5586	-0.01168934
0.5588	-0.01076646
0.559	-0.0103566
0.5592	-0.01171675
0.5594	-0.01353072
0.5596	-0.01340776
0.5598	-0.01367969
0.56	-0.01479171
0.5602	-0.0158426
0.5604	-0.01610185
0.5606	-0.01626698
0.5608	-0.01654213
0.561	-0.01720708
0.5612	-0.01639198
0.5614	-0.01595837
0.5616	-0.01547863
0.5618	-0.01649325
0.562	-0.01652151
0.5622	-0.01718268
0.5624	-0.01727267
0.5626	-0.01607057
0.5628	-0.01649396
0.563	-0.01745349
0.5632	-0.01728424
0.5634	-0.01579151
0.5636	-0.01294468
0.5638	-0.0109284
0.564	-0.01127334
0.5642	-0.009921412
0.5644	-0.009296959
0.5646	-0.008327649
0.5648	-0.008503908
0.565	-0.007347021
0.5652	-0.006473944
0.5654	-0.006950624
0.5656	-0.00725409
0.5658	-0.005505253
0.566	-0.002939466
0.5662	-0.0003075646
0.5664	0.0009901013
0.5666	-0.0002557988
0.5668	0.0007479123
0.567	0.001164636
0.5672	0.001779529
0.5674	0.003644749
0.5676	0.003683951
0.5678	0.003902161
0.568	0.005544856
0.5682	0.007154096
0.5684	0.0100793
0.5686	0.01106749
0.5688	0.01217275
0.569	0.01237853
0.5692	0.01465795
0.5694	0.01501201
0.5696	0.01500442
0.5698	0.01295022
0.57	0.01178454
0.5702	0.01152767
0.5704	0.01227966
0.5706	0.01118388
0.5708	0.01098939
0.571	0.01158428
0.5712	0.01140052
0.5714	0.01110673
0.5716	0.01150509
0.5718	0.01204438
0.572	0.01164578
0.5722	0.01107416
0.5724	0.01065927
0.5726	0.01128869
0.5728	0.01105308
0.573	0.01135886
0.5732	0.01092495
0.5734	0.01033854
0.5736	0.009152251
0.5738	0.009518208
0.574	0.009003335
0.5742	0.009276361
0.5744	0.009475891
0.5746	0.009065123
0.5748	0.009564304
0.575	0.009262851
0.5752	0.007866185
0.5754	0.006685218
0.5756	0.005413948
0.5758	0.003991455
0.576	0.003230778
0.5762	0.002309765
0.5764	0.0005068742
0.5766	-0.001554121
0.5768	-0.00106362
0.577	-0.001828919
0.5772	-0.002514925
0.5774	-0.0032478
0.5776	-0.003428773
0.5778	-0.00338753
0.578	-0.002518906
0.5782	-0.005289456
0.5784	-0.007029727
0.5786	-0.007437918
0.5788	-0.008034962
0.579	-0.008331358
0.5792	-0.00908537
0.5794	-0.008546761
0.5796	-0.009680433
0.5798	-0.009189148
0.58	-0.009447875
0.5802	-0.008939287
0.5804	-0.009925473
0.5806	-0.01065201
0.5808	-0.01152978
0.581	-0.01274665
0.5812	-0.01246057
0.5814	-0.01103504
0.5816	-0.01047886
0.5818	-0.01044067
0.582	-0.01151673
0.5822	-0.01293709
0.5824	-0.0118562
0.5826	-0.01066456
0.5828	-0.009553861
0.583	-0.00901712
0.5832	-0.009537166
0.5834	-0.01103659
0.5836	-0.01167411
0.5838	-0.0118912
0.584	-0.01106689
0.5842	-0.01053186
0.5844	-0.009978545
0.5846	-0.009643898
0.5848	-0.01101964
0.585	-0.009010814
0.5852	-0.00756105
0.5854	-0.007455601
0.5856	-0.00702035
0.5858	-0.006901226
0.586	-0.005717606
0.5862	-0.006197123
0.5864	-0.006345613
0.5866	-0.005902961
0.5868	-0.005485483
0.587	-0.004463199
0.5872	-0.00456881
0.5874	-0.003445273
0.5876	-0.001277273
0.5878	-0.0005403376
0.588	0.0002984791
0.5882	0.0007159921
0.5884	0.001075153
0.5886	0.0001879147
0.5888	0.002671938
0.589	0.004253032
0.5892	0.004273253
0.5894	0.00483289
0.5896	0.005254713
0.5898	0.006896502
0.59	0.008022564
0.5902	0.01012922
0.5904	0.01116737
0.5906	0.0116504
0.5908	0.01203559
0.591	0.01217128
0.5912	0.01258284
0.5914	0.01208141
0.5916	0.01274043
0.5918	0.01480974
0.592	0.01444952
0.5922	0.01273916
0.5924	0.01301805
0.5926	0.01321312
0.5928	0.01421595
0.593	0.01339492
0.5932	0.01265006
0.5934	0.01317082
0.5936	0.01315944
0.5938	0.01294474
0.594	0.01380606
0.5942	0.01332037
0.5944	0.01316908
0.5946	0.01379904
0.5948	0.01273587
0.595	0.01030047
0.5952	0.009194773
0.5954	0.01022736
0.5956	0.01030815
0.5958	0.01029763
0.596	0.009264252
0.5962	0.006240248
0.5964	0.005159549
0.5966	0.004619765
0.5968	0.004544574
0.597	0.002112036
0.5972	-0.0006536347
0.5974	-0.001926516
0.5976	-0.00183088
0.5978	-0.001689563
0.598	-0.003009649
0.5982	-0.004275524
0.5984	-0.005547119
0.5986	-0.007112435
0.5988	-0.00731394
0.599	-0.008039193
0.5992	-0.00828017
0.5994	-0.008606084
0.5996	-0.009093146
0.5998	-0.00975599
0.6	-0.009370307
0.6002	-0.01031347
0.6004	-0.0120392
0.6006	-0.01322583
0.6008	-0.01395897
0.601	-0.01348521
0.6012	-0.01276405
0.6014	-0.01283422
0.6016	-0.01334334
0.6018	-0.01410807
0.602	-0.01369888
0.6022	-0.01385989
0.6024	-0.01491038
0.6026	-0.01500761
0.6028	-0.01582891
0.603	-0.01391296
0.6032	-0.01436473
0.6034	-0.01358439
0.6036	-0.01275991
0.6038	-0.01274312
0.604	-0.01224781
0.6042	-0.01173931
0.6044	-0.009335033
0.6046	-0.009138483
0.6048	-0.009285351
0.605	-0.008644539
0.6052	-0.007885634
0.6054	-0.006673413
0.6056	-0.005256874
0.6058	-0.004042469
0.606	-0.003085376
0.6062	-0.002162468
0.6064	-0.001117656
0.6066	-0.00118322
0.6068	-0.0004464482
0.607	0.001626616
0.6072	0.004329517
0.6074	0.004434349
0.6076	0.005212328
0.6078	0.006206521
0.608	0.00574536
0.6082	0.006526612
0.6084	0.006639373
0.6086	0.007115866
0.6088	0.008300903
0.609	0.008556838
0.6092	0.0095795
0.6094	0.01173213
0.6096	0.01043659
0.6098	0.01193712
0.61	0.01401832
0.6102	0.01458511
0.6104	0.01507698
0.6106	0.0157811
0.6108	0.01708889
0.611	0.01793168
0.6112	0.01841637
0.6114	0.01887834
0.6116	0.02031483
0.6118	0.01994052
0.612	0.01914374
0.6122	0.01941823
0.6124	0.01783694
0.6126	0.0164961
0.6128	0.01666362
0.613	0.01502305
0.6132	0.01455715
0.6134	0.01597436
0.6136	0.01776619
0.6138	0.0190499
0.614	0.02008992
0.6142	0.0199295
0.6144	0.02021222
0.6146	0.01951422
0.6148	0.01934191
0.615	0.0192218
0.6152	0.01799998
0.6154	0.01745352
0.6156	0.01525085
0.6158	0.01359719
0.616	0.01345815
0.6162	0.01397708
0.6164	0.01169261
0.6166	0.01006058
0.6168	0.008562223
0.617	0.007070838
0.6172	0.006996951
0.6174	0.004793958
0.6176	0.004314784
0.6178	0.003808399
0.618	0.002074452
0.6182	0.002876552
0.6184	0.002649687
0.6186	0.001770434
0.6188	-0.0001417105
0.619	-0.001484665
0.6192	-0.002783858
0.6194	-0.003623385
0.6196	-0.005066744
0.6198	-0.00751686
0.62	-0.007895515
0.6202	-0.008620886
0.6204	-0.01025788
0.6206	-0.009571059
0.6208	-0.009895464
0.621	-0.009813279
0.6212	-0.01047775
0.6214	-0.01060666
0.6216	-0.01168262
0.6218	-0.01356789
0.622	-0.01333167
0.6222	-0.01312606
0.6224	-0.01653824
0.6226	-0.02000013
0.6228	-0.02036091
0.623	-0.02077087
0.6232	-0.0207604
0.6234	-0.0214428
0.6236	-0.02372084
0.6238	-0.02596869
0.624	-0.02433579
0.6242	-0.02396959
0.6244	-0.02576919
0.6246	-0.02439606
0.6248	-0.02276013
0.625	-0.02308309
0.6252	-0.02358004
0.6254	-0.02351221
0.6256	-0.02154094
0.6258	-0.02111976
0.626	-0.02092135
0.6262	-0.02180611
0.6264	-0.02245171
0.6266	-0.02155158
0.6268	-0.02146482
0.627	-0.02151354
0.6272	-0.01908017
0.6274	-0.01833064
0.6276	-0.01759741
0.6278	-0.01618527
0.628	-0.01466696
0.6282	-0.01224677
0.6284	-0.01027824
0.6286	-0.007288544
0.6288	-0.00425255
0.629	-0.00291721
0.6292	-0.002013353
0.6294	-0.001566373
0.6296	-0.002032176
0.6298	-0.001786301
0.63	-0.0002528544
0.6302	0.001356018
0.6304	0.002751287
0.6306	0.003159718
0.6308	0.003144967
0.631	0.004695325
0.6312	0.004191695
0.6314	0.0064718
0.6316	0.01004743
0.6318	0.01159774
0.632	0.01219882
0.6322	0.0114628
0.6324	0.01337711
0.6326	0.01471564
0.6328	0.01491327
0.633	0.01629598
0.6332	0.01666811
0.6334	0.01754433
0.6336	0.01801066
0.6338	0.01960552
0.634	0.02051737
0.6342	0.02044402
0.6344	0.0202264
0.6346	0.01899743
0.6348	0.01678762
0.635	0.01401254
0.6352	0.01200929
0.6354	0.009582457
0.6356	0.007717985
0.6358	0.008989308
0.636	0.00759729
0.6362	0.00616515
0.6364	0.005330961
0.6366	0.004627639
0.6368	0.00538868
0.637	0.006174741
0.6372	0.005933734
0.6374	0.003431715
0.6376	0.001352096
0.6378	0.0007379221
0.638	0.001302832
0.6382	0.001793133
0.6384	0.0002511497
0.6386	-0.001836553
0.6388	-0.003343955
0.639	-0.003054812
0.6392	-0.00135471
0.6394	0.0002730688
0.6396	0.002204077
0.6398	0.00438189
0.64	0.006817105
0.6402	0.009039154
0.6404	0.009810447
0.6406	0.01014101
0.6408	0.01007478
0.641	0.009161444
0.6412	0.008490808
0.6414	0.005525689
0.6416	0.00181453
0.6418	0.000202775
0.642	-0.002500966
0.6422	-0.004219397
0.6424	-0.005212256
0.6426	-0.007345331
0.6428	-0.00986723
0.643	-0.01025962
0.6432	-0.01112273
0.6434	-0.01131067
0.6436	-0.01080395
0.6438	-0.01116033
0.644	-0.01113385
0.6442	-0.01165326
0.6444	-0.01211858
0.6446	-0.00952593
0.6448	-0.009299876
0.645	-0.008260148
0.6452	-0.006682652
0.6454	-0.00535578
0.6456	-0.002128966
0.6458	-0.0006848713
0.646	0.001575057
0.6462	0.003744087
0.6464	0.005591781
0.6466	0.00715665
0.6468	0.006234811
0.647	0.00605518
0.6472	0.007874685
0.6474	0.006683747
0.6476	0.004514662
0.6478	0.001183962
0.648	-0.0009720238
0.6482	-0.00260011
0.6484	-0.004497111
0.6486	-0.004281101
0.6488	-0.005153829
0.649	-0.006659986
0.6492	-0.008244597
0.6494	-0.01019558
0.6496	-0.01108273
0.6498	-0.0117334
0.65	-0.01121711
0.6502	-0.009242518
0.6504	-0.006652946
0.6506	-0.004692083
0.6508	-0.003928193
0.651	-0.001397797
0.6512	-0.000491279
0.6514	0.0007459249
0.6516	0.00238337
0.6518	0.003084465
0.652	0.003328482
0.6522	0.002953107
0.6524	0.003931197
0.6526	0.004021843
0.6528	0.002204132
0.653	0.001442904
0.6532	0.001929881
0.6534	0.0004130041
0.6536	-0.001202179
0.6538	0.0004903153
0.654	0.002186629
0.6542	0.004157132
0.6544	0.005280327
0.6546	0.006573546
0.6548	0.006812837
0.655	0.007806685
0.6552	0.009494054
0.6554	0.01167356
0.6556	0.01412612
0.6558	0.01746227
0.656	0.01836325
0.6562	0.01778345
0.6564	0.01852207
0.6566	0.01781415
0.6568	0.01702875
0.657	0.01703737
0.6572	0.01633584
0.6574	0.01475603
0.6576	0.01213609
0.6578	0.01025083
0.658	0.007685294
0.6582	0.005881927
0.6584	0.004513822
0.6586	0.004235733
0.6588	0.001894155
0.659	0.000616661
0.6592	0.002027662
0.6594	0.002658604
0.6596	0.003443429
0.6598	0.002649891
0.66	0.004004997
0.6602	0.002093554
0.6604	0.0008536765
0.6606	-0.0007689409
0.6608	-0.005622921
0.661	-0.01124079
0.6612	-0.01527456
0.6614	-0.01764533
0.6616	-0.01845354
0.6618	-0.01735166
0.662	-0.01600207
0.6622	-0.01590766
0.6624	-0.01441934
0.6626	-0.01152698
0.6628	-0.008515003
0.663	-0.003928409
0.6632	0.0007989153
0.6634	0.002036688
0.6636	0.004063522
0.6638	0.005333683
0.664	0.008195769
0.6642	0.0120127
0.6644	0.01386377
0.6646	0.01487989
0.6648	0.0144678
0.665	0.01343088
0.6652	0.01050501
0.6654	0.007568097
0.6656	0.006573242
0.6658	0.004958616
0.666	0.002222893
0.6662	0.0004980952
0.6664	-0.001996455
0.6666	-0.005842931
0.6668	-0.008916328
0.667	-0.008179229
0.6672	-0.006951929
0.6674	-0.003845579
0.6676	0.001042811
0.6678	0.005604265
0.668	0.006951487
0.6682	0.006908828
0.6684	0.005660322
0.6686	0.004930506
0.6688	0.003666056
0.669	0.001071076
0.6692	-0.0002316961
0.6694	-0.003059812
0.6696	-0.006158572
0.6698	-0.01065132
0.67	-0.01413392
0.6702	-0.0155103
0.6704	-0.01767338
0.6706	-0.01836258
0.6708	-0.01835232
0.671	-0.01591293
0.6712	-0.01374303
0.6714	-0.01323134
0.6716	-0.01464567
0.6718	-0.01414287
0.672	-0.01249555
0.6722	-0.01312267
0.6724	-0.01071234
0.6726	-0.005375409
0.6728	0.002573214
0.673	0.013274
0.6732	0.02260023
0.6734	0.02808872
0.6736	0.02854066
0.6738	0.02654795
0.674	0.02483926
0.6742	0.02147555
0.6744	0.01834783
0.6746	0.01507505
0.6748	0.01338178
0.675	0.01320765
0.6752	0.01474755
0.6754	0.0187713
0.6756	0.02313313
0.6758	0.02766983
0.676	0.03132645
0.6762	0.03399533
0.6764	0.03284986
0.6766	0.03264999
0.6768	0.0324764
0.677	0.02761299
0.6772	0.02591814
0.6774	0.02537771
0.6776	0.02325546
0.6778	0.02142641
0.678	0.01943824
0.6782	0.01634801
0.6784	0.01374352
0.6786	0.01258155
0.6788	0.009206649
0.679	0.005917063
0.6792	0.002273224
0.6794	-0.001747962
0.6796	-0.005925918
0.6798	-0.01197645
0.68	-0.01640305
0.6802	-0.02059633
0.6804	-0.02467385
0.6806	-0.02831718
0.6808	-0.03285126
0.681	-0.03868821
0.6812	-0.04406267
0.6814	-0.04546046
0.6816	-0.04635901
0.6818	-0.04934791
0.682	-0.05247658
0.6822	-0.05573118
0.6824	-0.05626538
0.6826	-0.05677157
0.6828	-0.05948721
0.683	-0.06269596
0.6832	-0.06421436
0.6834	-0.06707416
0.6836	-0.06923619
0.6838	-0.06964703
0.684	-0.06759872
0.6842	-0.06209354
0.6844	-0.05710748
0.6846	-0.05456208
0.6848	-0.05376011
0.685	-0.05370216
0.6852	-0.05098659
0.6854	-0.04523155
0.6856	-0.04123348
0.6858	-0.03878435
0.686	-0.03774261
0.6862	-0.03614125
0.6864	-0.03060225
0.6866	-0.02779246
0.6868	-0.02293121
0.687	-0.01623027
0.6872	-0.009262246
0.6874	-0.00160299
0.6876	0.001563203
0.6878	-0.0002945972
0.688	-0.001308756
0.6882	-0.0005792105
0.6884	0.001948865
0.6886	0.006034568
0.6888	0.01265462
0.689	0.0207487
0.6892	0.0282657
0.6894	0.03473264
0.6896	0.04123754
0.6898	0.04758591
0.69	0.05521093
0.6902	0.06113725
0.6904	0.0628284
0.6906	0.06302839
0.6908	0.06182609
0.691	0.06001043
0.6912	0.05987713
0.6914	0.05964302
0.6916	0.05916731
0.6918	0.05877594
0.692	0.05879219
0.6922	0.05916384
0.6924	0.05823635
0.6926	0.05698154
0.6928	0.05303851
0.693	0.04911026
0.6932	0.04620707
0.6934	0.04336979
0.6936	0.04008127
0.6938	0.03626339
0.694	0.03402702
0.6942	0.03126929
0.6944	0.02901965
0.6946	0.02494465
0.6948	0.02351471
0.695	0.02074742
0.6952	0.01539593
0.6954	0.00843759
0.6956	0.002385981
0.6958	-0.003521014
0.696	-0.01094258
0.6962	-0.01809613
0.6964	-0.02656986
0.6966	-0.03296108
0.6968	-0.0353837
0.697	-0.03740001
0.6972	-0.04197104
0.6974	-0.04669547
0.6976	-0.05140163
0.6978	-0.0589305
0.698	-0.06654563
0.6982	-0.07271879
0.6984	-0.0732291
0.6986	-0.07198539
0.6988	-0.06993382
0.699	-0.06731109
0.6992	-0.06271736
0.6994	-0.05847595
0.6996	-0.05632038
0.6998	-0.0533081
0.7	-0.05006388
0.7002	-0.04520992
0.7004	-0.04139088
0.7006	-0.0385145
0.7008	-0.03539236
0.701	-0.03179973
0.7012	-0.02892129
0.7014	-0.02644694
0.7016	-0.02382835
0.7018	-0.02356319
0.702	-0.02424574
0.7022	-0.02302366
0.7024	-0.02069556
0.7026	-0.02084572
0.7028	-0.01771857
0.703	-0.01391706
0.7032	-0.0104708
0.7034	-0.009828437
0.7036	-0.008306491
0.7038	-0.004919302
0.704	-0.001680095
0.7042	0.0007024258
0.7044	0.003729316
0.7046	0.006021168
0.7048	0.008657248
0.705	0.01221787
0.7052	0.01394547
0.7054	0.01539474
0.7056	0.01622395
0.7058	0.01556107
0.706	0.01616279
0.7062	0.01493045
0.7064	0.01581321
0.7066	0.01735755
0.7068	0.01795642
0.707	0.02023302
0.7072	0.02175894
0.7074	0.02243287
0.7076	0.02407969
0.7078	0.02504345
0.708	0.02645301
0.7082	0.02616853
0.7084	0.02646785
0.7086	0.02724556
0.7088	0.02876139
0.709	0.02867487
0.7092	0.02961082
0.7094	0.03025345
0.7096	0.02947066
0.7098	0.0296677
0.71	0.02977231
0.7102	0.02963644
0.7104	0.02932061
0.7106	0.02979273
0.7108	0.03037689
0.711	0.03201399
0.7112	0.03314765
0.7114	0.03300119
0.7116	0.03465492
0.7118	0.03527358
0.712	0.03535893
0.7122	0.03407691
0.7124	0.03360112
0.7126	0.03502249
0.7128	0.03381627
0.713	0.03230317
0.7132	0.03220796
0.7134	0.03088028
0.7136	0.02983153
0.7138	0.03035018
0.714	0.03075303
0.7142	0.03037095
0.7144	0.02698894
0.7146	0.02565181
0.7148	0.02309824
0.715	0.02039506
0.7152	0.01675216
0.7154	0.01339174
0.7156	0.008604531
0.7158	0.003572542
0.716	-0.0001035591
0.7162	-0.004391625
0.7164	-0.005708592
0.7166	-0.007795484
0.7168	-0.01019263
0.717	-0.01111701
0.7172	-0.01188175
0.7174	-0.01356483
0.7176	-0.01555062
0.7178	-0.01792987
0.718	-0.02110739
0.7182	-0.02229945
0.7184	-0.02373189
0.7186	-0.02492113
0.7188	-0.02642602
0.719	-0.02910888
0.7192	-0.0311177
0.7194	-0.03191171
0.7196	-0.03281024
0.7198	-0.03363473
0.72	-0.03524972
0.7202	-0.03740135
0.7204	-0.04027789
0.7206	-0.04000236
0.7208	-0.03988823
0.721	-0.0386657
0.7212	-0.03784291
0.7214	-0.03640301
0.7216	-0.0345338
0.7218	-0.03271155
0.722	-0.02831617
0.7222	-0.02409957
0.7224	-0.01923472
0.7226	-0.01460841
0.7228	-0.01129988
0.723	-0.005002374
0.7232	0.001572625
0.7234	0.006600725
0.7236	0.01274455
0.7238	0.01796616
0.724	0.02239201
0.7242	0.02566893
0.7244	0.02777804
0.7246	0.02627273
0.7248	0.02310343
0.725	0.01946053
0.7252	0.01572117
0.7254	0.01332649
0.7256	0.01122719
0.7258	0.01160504
0.726	0.01112134
0.7262	0.01287756
0.7264	0.01485056
0.7266	0.01726805
0.7268	0.01888787
0.727	0.0198848
0.7272	0.02170276
0.7274	0.02204785
0.7276	0.02227703
0.7278	0.02369442
0.728	0.02462456
0.7282	0.02378089
0.7284	0.02157295
0.7286	0.01936061
0.7288	0.01777876
0.729	0.01431727
0.7292	0.01103654
0.7294	0.008629205
0.7296	0.005870801
0.7298	0.004885159
0.73	0.004668908
0.7302	0.005817425
0.7304	0.006816758
0.7306	0.008301577
0.7308	0.009780278
0.731	0.01155208
0.7312	0.01265648
0.7314	0.01412112
0.7316	0.01453286
0.7318	0.01404807
0.732	0.01469698
0.7322	0.01292289
0.7324	0.01121808
0.7326	0.0102691
0.7328	0.008537234
0.733	0.007768375
0.7332	0.007588943
0.7334	0.007550293
0.7336	0.007422429
0.7338	0.006946146
0.734	0.008305164
0.7342	0.00796575
0.7344	0.007170103
0.7346	0.005129919
0.7348	0.002332322
0.735	-4.746728e-5
0.7352	0.0003677025
0.7354	-0.001379573
0.7356	-0.002301802
0.7358	-0.003110498
0.736	-0.005370762
0.7362	-0.006818549
0.7364	-0.006834626
0.7366	-0.007191183
0.7368	-0.006667499
0.737	-0.006839723
0.7372	-0.006790196
0.7374	-0.006915461
0.7376	-0.007266717
0.7378	-0.007958232
0.738	-0.01024356
0.7382	-0.01074768
0.7384	-0.0113012
0.7386	-0.009996512
0.7388	-0.01078717
0.739	-0.01187335
0.7392	-0.01179774
0.7394	-0.01340861
0.7396	-0.01481076
0.7398	-0.01690226
0.74	-0.0180167
0.7402	-0.01960903
0.7404	-0.0205908
0.7406	-0.02242087
0.7408	-0.02087235
0.741	-0.0209457
0.7412	-0.02285633
0.7414	-0.02342309
0.7416	-0.02506089
0.7418	-0.02692841
0.742	-0.02659412
0.7422	-0.0261757
0.7424	-0.02505182
0.7426	-0.02268658
0.7428	-0.02231427
0.743	-0.02290689
0.7432	-0.02134603
0.7434	-0.0201021
0.7436	-0.01934475
0.7438	-0.01767941
0.744	-0.01601801
0.7442	-0.01494022
0.7444	-0.01324262
0.7446	-0.01213581
0.7448	-0.01101579
0.745	-0.009535467
0.7452	-0.00800852
0.7454	-0.006730114
0.7456	-0.005093745
0.7458	-0.003983389
0.746	-0.003432546
0.7462	-0.002868401
0.7464	0.001075365
0.7466	0.003766341
0.7468	0.005873776
0.747	0.009068262
0.7472	0.0125233
0.7474	0.0135721
0.7476	0.01645821
0.7478	0.01833184
0.748	0.02011921
0.7482	0.02037228
0.7484	0.01863125
0.7486	0.0178426
0.7488	0.01715434
0.749	0.01641642
0.7492	0.01499564
0.7494	0.01328785
0.7496	0.01237684
0.7498	0.01143205
0.75	0.011168
0.7502	0.01178744
0.7504	0.01100678
0.7506	0.01177879
0.7508	0.01432109
0.751	0.01586485
0.7512	0.01745587
0.7514	0.01903691
0.7516	0.01895212
0.7518	0.02016354
0.752	0.01838648
0.7522	0.01528408
0.7524	0.01209995
0.7526	0.009705422
0.7528	0.008660153
0.753	0.00741247
0.7532	0.007456979
0.7534	0.007247145
0.7536	0.007298747
0.7538	0.006247742
0.754	0.005938524
0.7542	0.005128934
0.7544	0.004242088
0.7546	0.004472191
0.7548	0.004435481
0.755	0.004638171
0.7552	0.004021493
0.7554	0.005478976
0.7556	0.005621525
0.7558	0.005750708
0.756	0.004845977
0.7562	0.005633604
0.7564	0.005544957
0.7566	0.0045336
0.7568	0.004103858
0.757	0.002328882
0.7572	0.001037142
0.7574	0.000812408
0.7576	-0.001066096
0.7578	-0.003184501
0.758	-0.005231655
0.7582	-0.008952856
0.7584	-0.01056071
0.7586	-0.01058222
0.7588	-0.01036689
0.759	-0.009952471
0.7592	-0.01008627
0.7594	-0.01108882
0.7596	-0.01235804
0.7598	-0.01406716
0.76	-0.0132801
0.7602	-0.01384178
0.7604	-0.01444706
0.7606	-0.01298558
0.7608	-0.01079213
0.761	-0.01063312
0.7612	-0.01244271
0.7614	-0.01251877
0.7616	-0.01326545
0.7618	-0.01335178
0.762	-0.01370328
0.7622	-0.01417927
0.7624	-0.01509325
0.7626	-0.01579154
0.7628	-0.01669591
0.763	-0.01577576
0.7632	-0.01627072
0.7634	-0.0166066
0.7636	-0.01452496
0.7638	-0.01364939
0.764	-0.01302982
0.7642	-0.01115211
0.7644	-0.008989584
0.7646	-0.0086249
0.7648	-0.008216384
0.765	-0.008784119
0.7652	-0.0076926
0.7654	-0.006880861
0.7656	-0.005234579
0.7658	-0.004596998
0.766	-0.004690873
0.7662	-0.002942898
0.7664	-0.001917845
0.7666	-0.002296267
0.7668	-0.002800007
0.767	-0.001071481
0.7672	0.001157323
0.7674	0.003378968
0.7676	0.003156063
0.7678	0.003816889
0.768	0.004246073
0.7682	0.004519438
0.7684	0.006614397
0.7686	0.009732858
0.7688	0.0101935
0.769	0.0092034
0.7692	0.009002846
0.7694	0.008228991
0.7696	0.009722303
0.7698	0.01160573
0.77	0.0127636
0.7702	0.01365789
0.7704	0.01532271
0.7706	0.01672985
0.7708	0.01647098
0.771	0.01586156
0.7712	0.0153613
0.7714	0.01450031
0.7716	0.01546097
0.7718	0.0164548
0.772	0.01790336
0.7722	0.01913876
0.7724	0.01833082
0.7726	0.01796911
0.7728	0.01706902
0.773	0.01600028
0.7732	0.0155603
0.7734	0.01632975
0.7736	0.01442634
0.7738	0.01462714
0.774	0.01460456
0.7742	0.01433961
0.7744	0.01472867
0.7746	0.0144586
0.7748	0.01360206
0.775	0.01375906
0.7752	0.01335991
0.7754	0.01199718
0.7756	0.01119001
0.7758	0.008664908
0.776	0.007216192
0.7762	0.007663844
0.7764	0.005950789
0.7766	0.002887104
0.7768	0.001834086
0.777	-0.0002024025
0.7772	-0.003539273
0.7774	-0.006610977
0.7776	-0.007157769
0.7778	-0.009356143
0.778	-0.01122775
0.7782	-0.01133568
0.7784	-0.01265281
0.7786	-0.01302061
0.7788	-0.01266936
0.779	-0.01176213
0.7792	-0.01074471
0.7794	-0.0110158
0.7796	-0.01098076
0.7798	-0.01130716
0.78	-0.01172919
0.7802	-0.01118452
0.7804	-0.01338272
0.7806	-0.01423484
0.7808	-0.01415925
0.781	-0.01455767
0.7812	-0.0161639
0.7814	-0.01708305
0.7816	-0.01690408
0.7818	-0.01681396
0.782	-0.01600714
0.7822	-0.01582009
0.7824	-0.01604355
0.7826	-0.01658737
0.7828	-0.01497655
0.783	-0.01543441
0.7832	-0.01591571
0.7834	-0.01480401
0.7836	-0.01414455
0.7838	-0.01268966
0.784	-0.01273325
0.7842	-0.0126256
0.7844	-0.01293057
0.7846	-0.01328119
0.7848	-0.01147788
0.785	-0.01034676
0.7852	-0.011636
0.7854	-0.01129419
0.7856	-0.008612587
0.7858	-0.008357611
0.786	-0.009785747
0.7862	-0.007846331
0.7864	-0.006441154
0.7866	-0.005796658
0.7868	-0.004066461
0.787	-0.002462705
0.7872	-0.002944977
0.7874	-0.003491278
0.7876	-0.002200141
0.7878	-9.103852e-5
0.788	-0.0003607246
0.7882	0.0007890825
0.7884	0.00271457
0.7886	0.004926411
0.7888	0.007741584
0.789	0.009590345
0.7892	0.009174052
0.7894	0.008851976
0.7896	0.0115418
0.7898	0.01049029
0.79	0.01084323
0.7902	0.01245815
0.7904	0.01486287
0.7906	0.01692149
0.7908	0.01883308
0.791	0.01873567
0.7912	0.01775047
0.7914	0.0175661
0.7916	0.01783378
0.7918	0.01865989
0.792	0.01892967
0.7922	0.01960482
0.7924	0.01858242
0.7926	0.01849665
0.7928	0.0182256
0.793	0.01710109
0.7932	0.01679598
0.7934	0.01486368
0.7936	0.01584342
0.7938	0.01656922
0.794	0.01540958
0.7942	0.01445151
0.7944	0.01447956
0.7946	0.01381468
0.7948	0.01091393
0.795	0.008062714
0.7952	0.007723379
0.7954	0.007302734
0.7956	0.006524197
0.7958	0.006029285
0.796	0.004166806
0.7962	0.002192363
0.7964	0.00121885
0.7966	0.0002164807
0.7968	-0.001016737
0.797	-0.001311324
0.7972	-0.00147545
0.7974	-0.0020371
0.7976	-0.002647957
0.7978	-0.004564251
0.798	-0.005938699
0.7982	-0.00738657
0.7984	-0.00834414
0.7986	-0.00930699
0.7988	-0.01040967
0.799	-0.01078024
0.7992	-0.01044716
0.7994	-0.01069349
0.7996	-0.01148033
0.7998	-0.01200949
0.8	-0.01324539
0.8002	-0.01374087
0.8004	-0.01442667
0.8006	-0.01490633
0.8008	-0.01531738
0.801	-0.01494574
0.8012	-0.01508302
0.8014	-0.01596433
0.8016	-0.01707635
0.8018	-0.019245
0.802	-0.0185989
0.8022	-0.0172376
0.8024	-0.016918
0.8026	-0.0160289
0.8028	-0.01519981
0.803	-0.01560523
0.8032	-0.01739846
0.8034	-0.01712229
0.8036	-0.01680751
0.8038	-0.01478265
0.804	-0.01255072
0.8042	-0.01171087
0.8044	-0.01054468
0.8046	-0.009099048
0.8048	-0.007581678
0.805	-0.006345072
0.8052	-0.006625388
0.8054	-0.005839025
0.8056	-0.004598128
0.8058	-0.003341533
0.806	-0.001178576
0.8062	-0.0007734331
0.8064	-0.002093856
0.8066	-0.001739589
0.8068	-4.359695e-5
0.807	0.002267893
0.8072	0.003833279
0.8074	0.005273902
0.8076	0.007345816
0.8078	0.007883828
0.808	0.008895041
0.8082	0.0093666
0.8084	0.01019586
0.8086	0.0118756
0.8088	0.01332496
0.809	0.01624289
0.8092	0.01532917
0.8094	0.01399663
0.8096	0.01426704
0.8098	0.01487873
0.81	0.01463798
0.8102	0.01370303
0.8104	0.01308946
0.8106	0.01192504
0.8108	0.01267797
0.811	0.01461224
0.8112	0.01530079
0.8114	0.01516066
0.8116	0.01538896
0.8118	0.01641372
0.812	0.01830703
0.8122	0.01729305
0.8124	0.01720708
0.8126	0.01818744
0.8128	0.01766819
0.813	0.01719441
0.8132	0.01634822
0.8134	0.01587066
0.8136	0.01557521
0.8138	0.01491075
0.814	0.01421904
0.8142	0.01396344
0.8144	0.01398278
0.8146	0.01283775
0.8148	0.01296393
0.815	0.01247922
0.8152	0.009335013
0.8154	0.007896661
0.8156	0.005987939
0.8158	0.00289617
0.816	0.001220224
0.8162	-0.0008183114
0.8164	-0.002545301
0.8166	-0.003535123
0.8168	-0.003714003
0.817	-0.004639874
0.8172	-0.006211292
0.8174	-0.006240064
0.8176	-0.006219149
0.8178	-0.007746477
0.818	-0.01131281
0.8182	-0.01151286
0.8184	-0.01287837
0.8186	-0.01300748
0.8188	-0.01391508
0.819	-0.01561589
0.8192	-0.01744153
0.8194	-0.01647735
0.8196	-0.01622233
0.8198	-0.01735887
0.82	-0.01804714
0.8202	-0.01925389
0.8204	-0.01903014
0.8206	-0.016618
0.8208	-0.01388497
0.821	-0.01473871
0.8212	-0.01521548
0.8214	-0.01535985
0.8216	-0.0152791
0.8218	-0.01471934
0.822	-0.01622378
0.8222	-0.01886996
0.8224	-0.02016782
0.8226	-0.01913056
0.8228	-0.01882385
0.823	-0.0179732
0.8232	-0.01886009
0.8234	-0.01972331
0.8236	-0.02003964
0.8238	-0.02025002
0.824	-0.01810092
0.8242	-0.01629348
0.8244	-0.01543626
0.8246	-0.01255303
0.8248	-0.01161028
0.825	-0.01316348
0.8252	-0.01298052
0.8254	-0.01161279
0.8256	-0.008670566
0.8258	-0.007000898
0.826	-0.006706892
0.8262	-0.004908564
0.8264	-0.003774773
0.8266	-0.002543274
0.8268	-0.001449252
0.827	-0.000769953
0.8272	0.0008785
0.8274	0.003271353
0.8276	0.004696377
0.8278	0.005162467
0.828	0.005591359
0.8282	0.007222187
0.8284	0.008605704
0.8286	0.01025684
0.8288	0.01189115
0.829	0.01138683
0.8292	0.01092336
0.8294	0.0110086
0.8296	0.01163059
0.8298	0.01230074
0.83	0.01271026
0.8302	0.01425248
0.8304	0.01370901
0.8306	0.01387235
0.8308	0.01571818
0.831	0.01720226
0.8312	0.01729535
0.8314	0.0180512
0.8316	0.01926526
0.8318	0.01875798
0.832	0.01887349
0.8322	0.01882936
0.8324	0.0186471
0.8326	0.02052724
0.8328	0.01985547
0.833	0.01937427
0.8332	0.01894794
0.8334	0.01969944
0.8336	0.01900532
0.8338	0.01842492
0.834	0.01903298
0.8342	0.0183104
0.8344	0.01800208
0.8346	0.01785231
0.8348	0.01702764
0.835	0.01665754
0.8352	0.01492584
0.8354	0.01295219
0.8356	0.009933023
0.8358	0.006984706
0.836	0.003073663
0.8362	-0.00392013
0.8364	-0.006554928
0.8366	-0.008853031
0.8368	-0.01197571
0.837	-0.01444025
0.8372	-0.01476561
0.8374	-0.01660164
0.8376	-0.01738164
0.8378	-0.01594936
0.838	-0.01540347
0.8382	-0.01638027
0.8384	-0.01614138
0.8386	-0.01468854
0.8388	-0.01560397
0.839	-0.0153734
0.8392	-0.01271932
0.8394	-0.01116696
0.8396	-0.01076565
0.8398	-0.01042895
0.84	-0.01015813
0.8402	-0.01108119
0.8404	-0.0112365
0.8406	-0.01002659
0.8408	-0.009806197
0.841	-0.008231252
0.8412	-0.007321939
0.8414	-0.008131002
0.8416	-0.008764734
0.8418	-0.008296946
0.842	-0.009156816
0.8422	-0.009446059
0.8424	-0.01004948
0.8426	-0.007974464
0.8428	-0.005246002
0.843	-0.004720242
0.8432	-0.004989148
0.8434	-0.005218022
0.8436	-0.003721792
0.8438	-0.002357914
0.844	-0.0001617389
0.8442	0.0006619059
0.8444	0.0008042401
0.8446	0.001272445
0.8448	0.001996515
0.845	0.002186078
0.8452	0.001495715
0.8454	0.0004721556
0.8456	-0.0006587088
0.8458	-0.003269251
0.846	-0.005479131
0.8462	-0.007599467
0.8464	-0.008892533
0.8466	-0.01032584
0.8468	-0.01049088
0.847	-0.009871824
0.8472	-0.008379025
0.8474	-0.005748167
0.8476	-0.004012097
0.8478	-0.003970371
0.848	-0.004087995
0.8482	-0.002882588
0.8484	-0.0008055863
0.8486	0.001209261
0.8488	0.001218298
0.849	0.002815061
0.8492	0.004271263
0.8494	0.003114518
0.8496	0.002657092
0.8498	0.002451968
0.85	0.005487372
0.8502	0.006608468
0.8504	0.007014943
0.8506	0.009526915
0.8508	0.01017428
0.851	0.01057697
0.8512	0.01200428
0.8514	0.01295591
0.8516	0.01414086
0.8518	0.014351
0.852	0.01734929
0.8522	0.01992179
0.8524	0.02101896
0.8526	0.02289388
0.8528	0.02327044
0.853	0.0224729
0.8532	0.02224693
0.8534	0.02249022
0.8536	0.02182959
0.8538	0.02242226
0.854	0.02301167
0.8542	0.02168202
0.8544	0.02038013
0.8546	0.01921268
0.8548	0.01838397
0.855	0.01546492
0.8552	0.01503118
0.8554	0.01411122
0.8556	0.01246975
0.8558	0.01132072
0.856	0.01085571
0.8562	0.009133213
0.8564	0.007554946
0.8566	0.007113061
0.8568	0.005322354
0.857	0.003050861
0.8572	0.001276976
0.8574	-0.001255344
0.8576	-0.002865603
0.8578	-0.004427778
0.858	-0.006058155
0.8582	-0.008189692
0.8584	-0.01102775
0.8586	-0.01181649
0.8588	-0.01075376
0.859	-0.01156139
0.8592	-0.01271175
0.8594	-0.0131842
0.8596	-0.01552972
0.8598	-0.01825728
0.86	-0.02155139
0.8602	-0.02480827
0.8604	-0.02575313
0.8606	-0.02560393
0.8608	-0.02609873
0.861	-0.02633482
0.8612	-0.02576852
0.8614	-0.02562483
0.8616	-0.02350497
0.8618	-0.02166967
0.862	-0.02121945
0.8622	-0.02030005
0.8624	-0.01966237
0.8626	-0.01904114
0.8628	-0.01815427
0.863	-0.01580006
0.8632	-0.0147554
0.8634	-0.01313232
0.8636	-0.01290624
0.8638	-0.01142348
0.864	-0.009664103
0.8642	-0.008942243
0.8644	-0.007753777
0.8646	-0.007370838
0.8648	-0.005212371
0.865	-0.003672218
0.8652	-0.0008251177
0.8654	0.001214609
0.8656	0.002248605
0.8658	0.004514588
0.866	0.007509468
0.8662	0.009723108
0.8664	0.01082114
0.8666	0.01252965
0.8668	0.01288602
0.867	0.01269592
0.8672	0.01188448
0.8674	0.009314332
0.8676	0.009712031
0.8678	0.009213123
0.868	0.006893266
0.8682	0.006527619
0.8684	0.007648032
0.8686	0.006511403
0.8688	0.006269001
0.869	0.005347184
0.8692	0.003592708
0.8694	0.001306045
0.8696	-0.001632105
0.8698	-0.001924034
0.87	-0.002716252
0.8702	-0.001529659
0.8704	-0.0001614202
0.8706	0.0001827329
0.8708	0.001933322
0.871	0.003867546
0.8712	0.00513155
0.8714	0.007669751
0.8716	0.01169476
0.8718	0.01210284
0.872	0.01453386
0.8722	0.01450635
0.8724	0.01347004
0.8726	0.01624059
0.8728	0.01763773
0.873	0.01691686
0.8732	0.01609669
0.8734	0.01513253
0.8736	0.0158723
0.8738	0.01616278
0.874	0.01661308
0.8742	0.01570788
0.8744	0.01506912
0.8746	0.0156432
0.8748	0.01318373
0.875	0.01246561
0.8752	0.01201512
0.8754	0.01077877
0.8756	0.00994051
0.8758	0.006845418
0.876	0.005078042
0.8762	0.005912716
0.8764	0.005781439
0.8766	0.00427612
0.8768	0.002721031
0.877	0.0003919004
0.8772	0.0003093889
0.8774	-0.0009448464
0.8776	-0.001853154
0.8778	-0.002248831
0.878	-0.003987601
0.8782	-0.006303367
0.8784	-0.007071687
0.8786	-0.009693499
0.8788	-0.01138625
0.879	-0.01301311
0.8792	-0.01323332
0.8794	-0.01326365
0.8796	-0.01463704
0.8798	-0.01499615
0.88	-0.01483745
0.8802	-0.01472608
0.8804	-0.01416034
0.8806	-0.01435731
0.8808	-0.01316926
0.881	-0.01433538
0.8812	-0.0167056
0.8814	-0.01785258
0.8816	-0.01765523
0.8818	-0.0161896
0.882	-0.01753301
0.8822	-0.01706845
0.8824	-0.01494157
0.8826	-0.01480275
0.8828	-0.01404391
0.883	-0.01278547
0.8832	-0.01334549
0.8834	-0.01375504
0.8836	-0.01437744
0.8838	-0.01432424
0.884	-0.01410226
0.8842	-0.01294205
0.8844	-0.01186157
0.8846	-0.009754194
0.8848	-0.008714109
0.885	-0.008002932
0.8852	-0.007472558
0.8854	-0.007007905
0.8856	-0.008388178
0.8858	-0.008577677
0.886	-0.006970108
0.8862	-0.007409731
0.8864	-0.006930987
0.8866	-0.006746946
0.8868	-0.006140959
0.887	-0.004816563
0.8872	-0.002832383
0.8874	-0.0007359374
0.8876	0.001822421
0.8878	0.002515438
0.888	0.004306101
0.8882	0.006337803
0.8884	0.006551739
0.8886	0.006741866
0.8888	0.007386645
0.889	0.007961386
0.8892	0.008001284
0.8894	0.009323569
0.8896	0.01036543
0.8898	0.01113454
0.89	0.0132371
0.8902	0.01381992
0.8904	0.01532303
0.8906	0.0147721
0.8908	0.01580022
0.891	0.01730739
0.8912	0.0184725
0.8914	0.01922391
0.8916	0.01849359
0.8918	0.0174287
0.892	0.01585055
0.8922	0.01421999
0.8924	0.01345004
0.8926	0.01299731
0.8928	0.0118414
0.893	0.01156555
0.8932	0.01468551
0.8934	0.01692658
0.8936	0.0161998
0.8938	0.01598511
0.894	0.0150195
0.8942	0.01517647
0.8944	0.01315641
0.8946	0.01287656
0.8948	0.01393972
0.895	0.01260774
0.8952	0.01132289
0.8954	0.009940471
0.8956	0.008593125
0.8958	0.007162497
0.896	0.006501828
0.8962	0.00606296
0.8964	0.006126085
0.8966	0.00512046
0.8968	0.004733346
0.897	0.004140417
0.8972	0.003549793
0.8974	0.003886295
0.8976	0.00226234
0.8978	0.002425613
0.898	-8.857203e-5
0.8982	-0.003409617
0.8984	-0.003894509
0.8986	-0.00526777
0.8988	-0.005830864
0.899	-0.007124408
0.8992	-0.007134478
0.8994	-0.007895037
0.8996	-0.008914897
0.8998	-0.009360053
0.9	-0.009588045
0.9002	-0.0110671
0.9004	-0.01235888
0.9006	-0.01321975
0.9008	-0.01352192
0.901	-0.01366683
0.9012	-0.01503129
0.9014	-0.01747926
0.9016	-0.01818553
0.9018	-0.01908567
0.902	-0.01990911
0.9022	-0.02043148
0.9024	-0.02078447
0.9026	-0.0184367
0.9028	-0.01834098
0.903	-0.01787967
0.9032	-0.01757031
0.9034	-0.01793052
0.9036	-0.01819269
0.9038	-0.0180701
0.904	-0.0184801
0.9042	-0.01905146
0.9044	-0.0183916
0.9046	-0.01657109
0.9048	-0.01385295
0.905	-0.01200129
0.9052	-0.01106048
0.9054	-0.01095265
0.9056	-0.009224555
0.9058	-0.008289277
0.906	-0.007840488
0.9062	-0.007632067
0.9064	-0.006474164
0.9066	-0.00438314
0.9068	-0.002630992
0.907	-0.001086347
0.9072	0.0001680615
0.9074	0.001671392
0.9076	0.002695327
0.9078	0.002283302
0.908	0.00382527
0.9082	0.005368794
0.9084	0.006390864
0.9086	0.006319743
0.9088	0.006234535
0.909	0.00697408
0.9092	0.008176803
0.9094	0.00775548
0.9096	0.008620144
0.9098	0.009518452
0.91	0.008668688
0.9102	0.009415505
0.9104	0.01041684
0.9106	0.01143751
0.9108	0.01341928
0.911	0.0156834
0.9112	0.01632926
0.9114	0.01685031
0.9116	0.0178663
0.9118	0.01833106
0.912	0.01893276
0.9122	0.02009555
0.9124	0.02088784
0.9126	0.02123589
0.9128	0.0215893
0.913	0.02067688
0.9132	0.0212169
0.9134	0.02036499
0.9136	0.01723614
0.9138	0.01484557
0.914	0.01574938
0.9142	0.01537716
0.9144	0.01544516
0.9146	0.01469982
0.9148	0.01509283
0.915	0.01544771
0.9152	0.01492057
0.9154	0.01479338
0.9156	0.01323048
0.9158	0.01124902
0.916	0.009926666
0.9162	0.00818432
0.9164	0.005335165
0.9166	0.002833115
0.9168	0.0009975064
0.917	-7.784744e-5
0.9172	-0.001752946
0.9174	-0.005208838
0.9176	-0.006948611
0.9178	-0.008745777
0.918	-0.009281003
0.9182	-0.01015504
0.9184	-0.01009966
0.9186	-0.009022235
0.9188	-0.00955732
0.919	-0.01052361
0.9192	-0.01185774
0.9194	-0.01319747
0.9196	-0.01580524
0.9198	-0.01717944
0.92	-0.01883695
0.9202	-0.01900369
0.9204	-0.01844879
0.9206	-0.01985279
0.9208	-0.02005267
0.921	-0.02043095
0.9212	-0.02076692
0.9214	-0.02034456
0.9216	-0.02055554
0.9218	-0.02231793
0.922	-0.02229435
0.9222	-0.02158438
0.9224	-0.02089788
0.9226	-0.01911712
0.9228	-0.01710046
0.923	-0.01735474
0.9232	-0.017414
0.9234	-0.01818945
0.9236	-0.01661643
0.9238	-0.01702905
0.924	-0.01483957
0.9242	-0.01304556
0.9244	-0.01146942
0.9246	-0.01113669
0.9248	-0.01044637
0.925	-0.00934631
0.9252	-0.007913769
0.9254	-0.007538882
0.9256	-0.00661329
0.9258	-0.006223874
0.926	-0.005141081
0.9262	-0.004066793
0.9264	-0.003345012
0.9266	-0.002557633
0.9268	-0.0003961181
0.927	0.002718179
0.9272	0.003369503
0.9274	0.00468983
0.9276	0.005732688
0.9278	0.00534342
0.928	0.006890097
0.9282	0.008385772
0.9284	0.01073458
0.9286	0.0129868
0.9288	0.01436826
0.929	0.01574536
0.9292	0.0152603
0.9294	0.01742853
0.9296	0.01744496
0.9298	0.01763814
0.93	0.01632229
0.9302	0.0166878
0.9304	0.01644604
0.9306	0.01701204
0.9308	0.01654507
0.931	0.01650578
0.9312	0.01653364
0.9314	0.01558721
0.9316	0.0153348
0.9318	0.01480141
0.932	0.01675003
0.9322	0.01630058
0.9324	0.01667258
0.9326	0.0173934
0.9328	0.01573694
0.933	0.01686458
0.9332	0.01805899
0.9334	0.01683263
0.9336	0.01642433
0.9338	0.01584487
0.934	0.01570778
0.9342	0.0150302
0.9344	0.01373882
0.9346	0.01324922
0.9348	0.01292353
0.935	0.01247995
0.9352	0.01243617
0.9354	0.01096983
0.9356	0.00795335
0.9358	0.007431566
0.936	0.004655384
0.9362	0.003501313
0.9364	0.004788532
0.9366	0.003550146
0.9368	0.002979067
0.937	0.002079494
0.9372	0.0005178266
0.9374	-0.0008002144
0.9376	-0.001872991
0.9378	-0.004270785
0.938	-0.006073498
0.9382	-0.008311712
0.9384	-0.00949551
0.9386	-0.009700722
0.9388	-0.01031419
0.939	-0.01124647
0.9392	-0.01165865
0.9394	-0.01264332
0.9396	-0.01413792
0.9398	-0.01511031
0.94	-0.01731484
0.9402	-0.01808445
0.9404	-0.01561969
0.9406	-0.01464151
0.9408	-0.0156762
0.941	-0.01575502
0.9412	-0.01627601
0.9414	-0.01652169
0.9416	-0.01712064
0.9418	-0.01705604
0.942	-0.0187471
0.9422	-0.01915183
0.9424	-0.01980611
0.9426	-0.02008351
0.9428	-0.02104421
0.943	-0.0205298
0.9432	-0.01911844
0.9434	-0.01906666
0.9436	-0.01743977
0.9438	-0.01770358
0.944	-0.01629406
0.9442	-0.01564481
0.9444	-0.01528348
0.9446	-0.01388156
0.9448	-0.01443713
0.945	-0.01378079
0.9452	-0.01197722
0.9454	-0.01134124
0.9456	-0.009807347
0.9458	-0.007444797
0.946	-0.00570745
0.9462	-0.005383221
0.9464	-0.005197695
0.9466	-0.005327267
0.9468	-0.00587669
0.947	-0.004095083
0.9472	-0.002054118
0.9474	-0.001160779
0.9476	0.0003414117
0.9478	0.003042141
0.948	0.005737477
0.9482	0.007926346
0.9484	0.008997147
0.9486	0.01062219
0.9488	0.01185318
0.949	0.01213311
0.9492	0.01268481
0.9494	0.01375309
0.9496	0.01452419
0.9498	0.01535061
0.95	0.01664339
0.9502	0.01641638
0.9504	0.01672174
0.9506	0.01657399
0.9508	0.01722395
0.951	0.01681857
0.9512	0.01782349
0.9514	0.01771557
0.9516	0.01890993
0.9518	0.02025475
0.952	0.02058771
0.9522	0.02120092
0.9524	0.02285597
0.9526	0.02358498
0.9528	0.02234599
0.953	0.02066101
0.9532	0.0185572
0.9534	0.01850711
0.9536	0.01824151
0.9538	0.01881312
0.954	0.01955356
0.9542	0.01780904
0.9544	0.015627
0.9546	0.01363165
0.9548	0.0130889
0.955	0.01279112
0.9552	0.01302617
0.9554	0.01118177
0.9556	0.009228754
0.9558	0.008055953
0.956	0.006499565
0.9562	0.00462374
0.9564	0.002899621
0.9566	0.00123068
0.9568	-0.0004404551
0.957	-0.002103081
0.9572	-0.005256779
0.9574	-0.007263015
0.9576	-0.007735527
0.9578	-0.006516494
0.958	-0.007969774
0.9582	-0.01036978
0.9584	-0.01323962
0.9586	-0.01504706
0.9588	-0.01403431
0.959	-0.01449841
0.9592	-0.01613981
0.9594	-0.01613614
0.9596	-0.01565772
0.9598	-0.0170445
0.96	-0.01795378
0.9602	-0.01753767
0.9604	-0.01756434
0.9606	-0.01831111
0.9608	-0.01819068
0.961	-0.01773515
0.9612	-0.01899355
0.9614	-0.01929506
0.9616	-0.02118016
0.9618	-0.02282362
0.962	-0.02131039
0.9622	-0.02157296
0.9624	-0.02188156
0.9626	-0.02267305
0.9628	-0.02336324
0.963	-0.02250656
0.9632	-0.02149396
0.9634	-0.01933248
0.9636	-0.01850761
0.9638	-0.01684742
0.964	-0.01675299
0.9642	-0.01430168
0.9644	-0.0117025
0.9646	-0.01146616
0.9648	-0.01178588
0.965	-0.01170072
0.9652	-0.009484793
0.9654	-0.00790377
0.9656	-0.007713562
0.9658	-0.007049132
0.966	-0.004982366
0.9662	-0.005165556
0.9664	-0.005152537
0.9666	-0.001707283
0.9668	0.00107448
0.967	0.002028649
0.9672	0.003464344
0.9674	0.005016824
0.9676	0.005938606
0.9678	0.006928349
0.968	0.00754814
0.9682	0.008837541
0.9684	0.009958242
0.9686	0.01145306
0.9688	0.01200781
0.969	0.01119704
0.9692	0.01180628
0.9694	0.01440795
0.9696	0.0159609
0.9698	0.01867972
0.97	0.02079519
0.9702	0.01940134
0.9704	0.01904648
0.9706	0.01748458
0.9708	0.01530178
0.971	0.01637549
0.9712	0.01733909
0.9714	0.01904555
0.9716	0.01972436
0.9718	0.01999701
0.972	0.01981356
0.9722	0.01976038
0.9724	0.01961078
0.9726	0.01914558
0.9728	0.01837397
0.973	0.01838474
0.9732	0.01993847
0.9734	0.01923314
0.9736	0.0188106
0.9738	0.01663142
0.974	0.01509771
0.9742	0.01352133
0.9744	0.01071157
0.9746	0.007995378
0.9748	0.002181773
0.975	-0.001767494
0.9752	-0.005842288
0.9754	-0.009293554
0.9756	-0.008885538
0.9758	-0.009414893
0.976	-0.01029482
0.9762	-0.009401925
0.9764	-0.008573533
0.9766	-0.008131261
0.9768	-0.00742141
0.977	-0.005766778
0.9772	-0.001313417
0.9774	0.0001835227
0.9776	0.0002035124
0.9778	0.001090209
0.978	0.002054754
0.9782	0.002834052
0.9784	0.002529978
0.9786	0.001848738
0.9788	0.003626018
0.979	0.004469097
0.9792	0.004479891
0.9794	0.004536263
0.9796	0.002166484
0.9798	0.001362217
0.98	0.001508969
0.9802	0.001202744
0.9804	6.642348e-5
0.9806	-0.001211639
0.9808	-0.001889446
0.981	-0.003179711
0.9812	-0.005979047
0.9814	-0.008175415
0.9816	-0.007664764
0.9818	-0.005749993
0.982	-0.005422644
0.9822	-0.005245631
0.9824	-0.00527938
0.9826	-0.006321576
0.9828	-0.007717901
0.983	-0.009537364
0.9832	-0.01075393
0.9834	-0.01186737
0.9836	-0.01448003
0.9838	-0.01573673
0.984	-0.01744531
0.9842	-0.01830138
0.9844	-0.01874092
0.9846	-0.01897404
0.9848	-0.01943279
0.985	-0.01976788
0.9852	-0.02000348
0.9854	-0.01910085
0.9856	-0.01899266
0.9858	-0.01675486
0.986	-0.01450527
0.9862	-0.01356269
0.9864	-0.01175804
0.9866	-0.01128662
0.9868	-0.01033089
0.987	-0.008615188
0.9872	-0.006275319
0.9874	-0.004218741
0.9876	-0.0021643
0.9878	-7.108394e-5
0.988	0.001488307
0.9882	0.005199286
0.9884	0.007965967
0.9886	0.009116769
0.9888	0.008888989
0.989	0.010424
0.9892	0.01207249
0.9894	0.01390632
0.9896	0.01570865
0.9898	0.01685865
0.99	0.01678864
0.9902	0.01655726
0.9904	0.01842472
0.9906	0.0205445
0.9908	0.02294715
0.991	0.02435001
0.9912	0.02347893
0.9914	0.02168777
0.9916	0.02062335
0.9918	0.0225898
0.992	0.02266697
0.9922	0.02011536
0.9924	0.01816715
0.9926	0.01664384
0.9928	0.01631007
0.993	0.01645895
0.9932	0.01472479
0.9934	0.01371962
0.9936	0.01331382
0.9938	0.01358556
0.994	0.01293146
0.9942	0.0115435
0.9944	0.01060892
0.9946	0.009681648
0.9948	0.009498712
0.995	0.007299562
0.9952	0.007013471
0.9954	0.006904972
0.9956	0.007198699
0.9958	0.006932619
0.996	0.00473448
0.9962	0.00300058
0.9964	0.0008554152
0.9966	-0.002549153
0.9968	-0.004289212
0.997	-0.005143377
0.9972	-0.006349017
0.9974	-0.007224639
0.9976	-0.008138038
0.9978	-0.00891924
0.998	-0.009908453
0.9982	-0.01074897
0.9984	-0.01079572
0.9986	-0.01231066
0.9988	-0.01311236
0.999	-0.01388086
0.9992	-0.01587708
0.9994	-0.0162656
0.9996	-0.01689099
0.9998	-0.01678509
1	-0.01822242
1.0002	-0.01930486
1.0004	-0.01673495
1.0006	-0.01640708
1.0008	-0.01669052
1.001	-0.01600932
1.0012	-0.01701757
1.0014	-0.01731461
1.0016	-0.01762563
1.0018	-0.01884331
1.002	-0.01918087
1.0022	-0.01954033
1.0024	-0.01923536
1.0026	-0.0192507
1.0028	-0.01835047
1.003	-0.01648326
1.0032	-0.01548366
1.0034	-0.01543269
1.0036	-0.01582939
1.0038	-0.01457465
1.004	-0.01567252
1.0042	-0.01457078
1.0044	-0.01190422
1.0046	-0.01305512
1.0048	-0.01196478
1.005	-0.01114752
1.0052	-0.00979106
1.0054	-0.007263313
1.0056	-0.007560403
1.0058	-0.007597913
1.006	-0.006842617
1.0062	-0.005766903
1.0064	-0.004262202
1.0066	-0.00222525
1.0068	-0.0006103758
1.007	-0.0004198401
1.0072	0.0006305136
1.0074	0.001784682
1.0076	0.00319441
1.0078	0.004592315
1.008	0.005253558
1.0082	0.005697253
1.0084	0.00530006
1.0086	0.006903119
1.0088	0.008499876
1.009	0.01058594
1.0092	0.01168876
1.0094	0.01373146
1.0096	0.01535261
1.0098	0.01728118
1.01	0.01849769
1.0102	0.01872509
1.0104	0.01972577
1.0106	0.01928909
1.0108	0.02090086
1.011	0.02172679
1.0112	0.02147982
1.0114	0.02322824
1.0116	0.02217877
1.0118	0.02000822
1.012	0.01921501
1.0122	0.01844503
1.0124	0.01894856
1.0126	0.01775423
1.0128	0.0165809
1.013	0.0152039
1.0132	0.01491087
1.0134	0.0143583
1.0136	0.0144216
1.0138	0.01365834
1.014	0.01283949
1.0142	0.01244432
1.0144	0.01133717
1.0146	0.01037654
1.0148	0.0105144
1.015	0.01121752
1.0152	0.01067835
1.0154	0.01222709
1.0156	0.01132669
1.0158	0.009955406
1.016	0.009454273
1.0162	0.008266998
1.0164	0.00640669
1.0166	0.005758067
1.0168	0.005865426
1.017	0.005732221
1.0172	0.0057051
1.0174	0.002332205
1.0176	0.0003884353
1.0178	0.0006493871
1.018	0.0005474822
1.0182	-0.0003406574
1.0184	-0.001570601
1.0186	-0.003521436
1.0188	-0.004682729
1.019	-0.004887817
1.0192	-0.006998961
1.0194	-0.009107077
1.0196	-0.00934186
1.0198	-0.01180465
1.02	-0.01318358
1.0202	-0.01289094
1.0204	-0.01503448
1.0206	-0.01582973
1.0208	-0.01634959
1.021	-0.0174317
1.0212	-0.01799118
1.0214	-0.01834513
1.0216	-0.01968061
1.0218	-0.01986434
1.022	-0.02238187
1.0222	-0.02293672
1.0224	-0.02140246
1.0226	-0.02120066
1.0228	-0.02056523
1.023	-0.02061826
1.0232	-0.02042866
1.0234	-0.01944437
1.0236	-0.01811827
1.0238	-0.01801961
1.024	-0.01735768
1.0242	-0.01595483
1.0244	-0.01475227
1.0246	-0.01324602
1.0248	-0.01244765
1.025	-0.01107586
1.0252	-0.01147249
1.0254	-0.01116196
1.0256	-0.01026023
1.0258	-0.009574823
1.026	-0.008432185
1.0262	-0.006540267
1.0264	-0.005408013
1.0266	-0.005048692
1.0268	-0.003152436
1.027	-0.001592811
1.0272	-0.002028743
1.0274	0.0001348729
1.0276	0.002025225
1.0278	0.002998437
1.028	0.005454586
1.0282	0.00708616
1.0284	0.009176292
1.0286	0.01022886
1.0288	0.009352921
1.029	0.01047958
1.0292	0.01150533
1.0294	0.0114074
1.0296	0.01190158
1.0298	0.0106659
1.03	0.0108162
1.0302	0.01380693
1.0304	0.01473316
1.0306	0.01443899
1.0308	0.01543152
1.031	0.0155487
1.0312	0.01503262
1.0314	0.01498519
1.0316	0.01464715
1.0318	0.0166782
1.032	0.01558209
1.0322	0.01469453
1.0324	0.0149534
1.0326	0.0160324
1.0328	0.01726646
1.033	0.01695017
1.0332	0.01643657
1.0334	0.01511101
1.0336	0.01440622
1.0338	0.01557018
1.034	0.01326505
1.0342	0.01103994
1.0344	0.01069094
1.0346	0.009605329
1.0348	0.01013744
1.035	0.009442617
1.0352	0.007348142
1.0354	0.008518228
1.0356	0.007880772
1.0358	0.006353852
1.036	0.006241774
1.0362	0.00562191
1.0364	0.003414912
1.0366	0.002727231
1.0368	0.001016834
1.037	-0.0004581706
1.0372	-0.001374713
1.0374	-0.0003755541
1.0376	-0.0008819925
1.0378	-0.001549748
1.038	-0.00480331
1.0382	-0.005360457
1.0384	-0.004275413
1.0386	-0.005372733
1.0388	-0.005133377
1.039	-0.006827228
1.0392	-0.007943986
1.0394	-0.008149411
1.0396	-0.01002075
1.0398	-0.01154127
1.04	-0.01216693
1.0402	-0.01333401
1.0404	-0.01476745
1.0406	-0.01610067
1.0408	-0.01620043
1.041	-0.0170136
1.0412	-0.01884551
1.0414	-0.01954567
1.0416	-0.02060099
1.0418	-0.02074086
1.042	-0.01963756
1.0422	-0.02045877
1.0424	-0.02045825
1.0426	-0.02131699
1.0428	-0.02014866
1.043	-0.01878545
1.0432	-0.01918307
1.0434	-0.01779413
1.0436	-0.01786289
1.0438	-0.01770827
1.044	-0.01533191
1.0442	-0.01457832
1.0444	-0.01562878
1.0446	-0.01484626
1.0448	-0.01424069
1.045	-0.01313655
1.0452	-0.01204552
1.0454	-0.0117958
1.0456	-0.009746711
1.0458	-0.00696831
1.046	-0.005932027
1.0462	-0.00516245
1.0464	-0.003804999
1.0466	-0.0040471
1.0468	-0.002502244
1.047	-0.0005663897
1.0472	0.001077603
1.0474	0.002288248
1.0476	0.003235101
1.0478	0.004518414
1.048	0.005056368
1.0482	0.0071876
1.0484	0.008658784
1.0486	0.009257506
1.0488	0.009509481
1.049	0.010314
1.0492	0.01131054
1.0494	0.0129625
1.0496	0.01438563
1.0498	0.01468056
1.05	0.01613162
1.0502	0.01652414
1.0504	0.01622923
1.0506	0.01615938
1.0508	0.01727853
1.051	0.0179782
1.0512	0.0192889
1.0514	0.01895451
1.0516	0.02017923
1.0518	0.02139493
1.052	0.02072942
1.0522	0.0194134
1.0524	0.01923526
1.0526	0.01962546
1.0528	0.01948327
1.053	0.01870595
1.0532	0.01758215
1.0534	0.01697798
1.0536	0.01558941
1.0538	0.0156692
1.054	0.01651435
1.0542	0.01723743
1.0544	0.01559528
1.0546	0.01484179
1.0548	0.01261976
1.055	0.01097414
1.0552	0.01085392
1.0554	0.01172295
1.0556	0.01121919
1.0558	0.007981577
1.056	0.005615537
1.0562	0.004451849
1.0564	0.004616373
1.0566	0.005158282
1.0568	0.003859023
1.057	0.002404903
1.0572	0.001581764
1.0574	0.0001273702
1.0576	-0.001422037
1.0578	-0.002375682
1.058	-0.003144045
1.0582	-0.003719098
1.0584	-0.00602089
1.0586	-0.006751322
1.0588	-0.00840003
1.059	-0.009976213
1.0592	-0.01033194
1.0594	-0.01047775
1.0596	-0.01095518
1.0598	-0.01138887
1.06	-0.01313437
1.0602	-0.01443068
1.0604	-0.01418301
1.0606	-0.01573531
1.0608	-0.01719606
1.061	-0.01842333
1.0612	-0.01941956
1.0614	-0.02108319
1.0616	-0.02244883
1.0618	-0.02201941
1.062	-0.02248844
1.0622	-0.02246612
1.0624	-0.02368571
1.0626	-0.02478495
1.0628	-0.02278393
1.063	-0.02177683
1.0632	-0.02143457
1.0634	-0.02122353
1.0636	-0.02025515
1.0638	-0.01855939
1.064	-0.01781848
1.0642	-0.0179683
1.0644	-0.01753057
1.0646	-0.01511711
1.0648	-0.01335447
1.065	-0.01159072
1.0652	-0.01166671
1.0654	-0.01041684
1.0656	-0.007325977
1.0658	-0.006623989
1.066	-0.006514431
1.0662	-0.004425494
1.0664	-0.002888624
1.0666	-0.002404045
1.0668	-0.0004913383
1.067	0.0002595785
1.0672	0.001760311
1.0674	0.004286684
1.0676	0.006156111
1.0678	0.007165952
1.068	0.008826638
1.0682	0.01113363
1.0684	0.01331193
1.0686	0.01391499
1.0688	0.01290035
1.069	0.01315653
1.0692	0.01445041
1.0694	0.01620481
1.0696	0.01681921
1.0698	0.01783586
1.07	0.0188065
1.0702	0.01956442
1.0704	0.01999652
1.0706	0.01960923
1.0708	0.01934113
1.071	0.01927686
1.0712	0.01950703
1.0714	0.02006941
1.0716	0.02049947
1.0718	0.02035249
1.072	0.02012471
1.0722	0.01977177
1.0724	0.01978655
1.0726	0.01940431
1.0728	0.01844462
1.073	0.01656903
1.0732	0.01477678
1.0734	0.01375998
1.0736	0.01186928
1.0738	0.01068856
1.074	0.01174921
1.0742	0.01192734
1.0744	0.01208398
1.0746	0.01242111
1.0748	0.01141114
1.075	0.009948351
1.0752	0.009695669
1.0754	0.008868727
1.0756	0.009435562
1.0758	0.008731386
1.076	0.004639958
1.0762	0.003670384
1.0764	0.002783178
1.0766	0.00101461
1.0768	0.001237582
1.077	-0.0006554887
1.0772	-0.0009599891
1.0774	-0.00197033
1.0776	-0.003956744
1.0778	-0.004638873
1.078	-0.005856308
1.0782	-0.006320892
1.0784	-0.007646124
1.0786	-0.009478793
1.0788	-0.0108115
1.079	-0.01157161
1.0792	-0.01154604
1.0794	-0.01189656
1.0796	-0.011837
1.0798	-0.01246054
1.08	-0.01444985
1.0802	-0.01473884
1.0804	-0.01394654
1.0806	-0.01479679
1.0808	-0.0152282
1.081	-0.0191039
1.0812	-0.02094255
1.0814	-0.02075516
1.0816	-0.02072791
1.0818	-0.01858096
1.082	-0.01836449
1.0822	-0.01947096
1.0824	-0.01954024
1.0826	-0.01998515
1.0828	-0.01879157
1.083	-0.01815817
1.0832	-0.01825517
1.0834	-0.01823412
1.0836	-0.01752006
1.0838	-0.0157504
1.084	-0.01399304
1.0842	-0.01298752
1.0844	-0.01171003
1.0846	-0.01226359
1.0848	-0.01297603
1.085	-0.01117436
1.0852	-0.01142789
1.0854	-0.0114756
1.0856	-0.009429501
1.0858	-0.008751695
1.086	-0.007306328
1.0862	-0.006310165
1.0864	-0.006261218
1.0866	-0.004824299
1.0868	-0.002780846
1.087	-0.0009198067
1.0872	-0.0002398969
1.0874	0.000133854
1.0876	0.0001494357
1.0878	0.0009330817
1.088	0.002601362
1.0882	0.003176315
1.0884	0.003343007
1.0886	0.004264195
1.0888	0.004670214
1.089	0.006484658
1.0892	0.008477176
1.0894	0.01002564
1.0896	0.0123673
1.0898	0.01277358
1.09	0.01426399
1.0902	0.01596986
1.0904	0.0174744
1.0906	0.01773561
1.0908	0.01915927
1.091	0.01946132
1.0912	0.02073182
1.0914	0.01977554
1.0916	0.02058662
1.0918	0.02152131
1.092	0.01936801
1.0922	0.01809597
1.0924	0.01799059
1.0926	0.01818079
1.0928	0.01818084
1.093	0.0181176
1.0932	0.01760619
1.0934	0.01684907
1.0936	0.01748603
1.0938	0.0176862
1.094	0.01499991
1.0942	0.01380075
1.0944	0.01290579
1.0946	0.01257303
1.0948	0.01146195
1.095	0.01148469
1.0952	0.01063317
1.0954	0.009933095
1.0956	0.008704276
1.0958	0.006295127
1.096	0.00458554
1.0962	0.004102836
1.0964	0.004835541
1.0966	0.005094349
1.0968	0.003880694
1.097	0.0001370705
1.0972	-0.001544132
1.0974	-0.003307252
1.0976	-0.004480001
1.0978	-0.005405703
1.098	-0.006308588
1.0982	-0.006394836
1.0984	-0.007819447
1.0986	-0.008849044
1.0988	-0.01013975
1.099	-0.01126048
1.0992	-0.01174915
1.0994	-0.01079405
1.0996	-0.01088876
1.0998	-0.01447526
1.1	-0.01550936
1.1002	-0.01512742
1.1004	-0.0138861
1.1006	-0.01355885
1.1008	-0.01588999
1.101	-0.0158887
1.1012	-0.01413031
1.1014	-0.01428414
1.1016	-0.01588441
1.1018	-0.01599439
1.102	-0.01639105
1.1022	-0.01637894
1.1024	-0.0168636
1.1026	-0.01669673
1.1028	-0.01709661
1.103	-0.01680447
1.1032	-0.01777816
1.1034	-0.01780442
1.1036	-0.01732063
1.1038	-0.01767692
1.104	-0.01645624
1.1042	-0.0143426
1.1044	-0.01270236
1.1046	-0.01207128
1.1048	-0.01142698
1.105	-0.01088608
1.1052	-0.01128306
1.1054	-0.01027348
1.1056	-0.008552738
1.1058	-0.008639178
1.106	-0.008584483
1.1062	-0.00585049
1.1064	-0.004242739
1.1066	-0.001468749
1.1068	0.0007528497
1.107	0.002001059
1.1072	0.003493979
1.1074	0.004023197
1.1076	0.003788025
1.1078	0.004343998
1.108	0.004644663
1.1082	0.00551721
1.1084	0.007857721
1.1086	0.00940091
1.1088	0.009635306
1.109	0.009173495
1.1092	0.008639247
1.1094	0.008804178
1.1096	0.009548167
1.1098	0.0112966
1.11	0.0130704
1.1102	0.0135768
1.1104	0.01282859
1.1106	0.01179304
1.1108	0.01245213
1.111	0.01446252
1.1112	0.01456665
1.1114	0.0150595
1.1116	0.01588379
1.1118	0.01747976
1.112	0.01749721
1.1122	0.01887727
1.1124	0.01857487
1.1126	0.01656135
1.1128	0.01629437
1.113	0.01538016
1.1132	0.01457867
1.1134	0.01326068
1.1136	0.01232893
1.1138	0.01107207
1.114	0.01037028
1.1142	0.01109858
1.1144	0.01163042
1.1146	0.01054628
1.1148	0.01147004
1.115	0.01078227
1.1152	0.009818803
1.1154	0.009204295
1.1156	0.007332129
1.1158	0.008115521
1.116	0.006310529
1.1162	0.006117308
1.1164	0.006249038
1.1166	0.004513043
1.1168	0.002648609
1.117	0.001304795
1.1172	0.0008567492
1.1174	-1.224789e-5
1.1176	3.566869e-5
1.1178	-1.520533e-5
1.118	-0.001100064
1.1182	-0.001913632
1.1184	-0.003244251
1.1186	-0.004710229
1.1188	-0.005648326
1.119	-0.00692706
1.1192	-0.008672995
1.1194	-0.009179793
1.1196	-0.009405321
1.1198	-0.01081382
1.12	-0.01032341
1.1202	-0.01087177
1.1204	-0.01295116
1.1206	-0.01321184
1.1208	-0.01185375
1.121	-0.01143465
1.1212	-0.01274694
1.1214	-0.01385641
1.1216	-0.01475166
1.1218	-0.01543767
1.122	-0.01558002
1.1222	-0.01499495
1.1224	-0.01604469
1.1226	-0.01640058
1.1228	-0.01713855
1.123	-0.01706715
1.1232	-0.01628996
1.1234	-0.01827276
1.1236	-0.01765365
1.1238	-0.01695619
1.124	-0.0146654
1.1242	-0.01425661
1.1244	-0.01468898
1.1246	-0.01436969
1.1248	-0.01425172
1.125	-0.0126537
1.1252	-0.0118479
1.1254	-0.01070435
1.1256	-0.009299749
1.1258	-0.008058424
1.126	-0.006938098
1.1262	-0.00711256
1.1264	-0.006235274
1.1266	-0.004029805
1.1268	-0.003636526
1.127	-0.002338995
1.1272	-0.001431492
1.1274	0.0004678801
1.1276	0.004005566
1.1278	0.00478232
1.128	0.005221166
1.1282	0.006608936
1.1284	0.009062846
1.1286	0.01151816
1.1288	0.01151564
1.129	0.01148111
1.1292	0.01193269
1.1294	0.0132303
1.1296	0.01393003
1.1298	0.01510609
1.13	0.01721649
1.1302	0.01917707
1.1304	0.01855535
1.1306	0.01893193
1.1308	0.01995455
1.131	0.02107782
1.1312	0.02065481
1.1314	0.02113213
1.1316	0.02161587
1.1318	0.02097879
1.132	0.02178602
1.1322	0.02231736
1.1324	0.0222289
1.1326	0.02175767
1.1328	0.02152687
1.133	0.0211894
1.1332	0.02109364
1.1334	0.01969502
1.1336	0.01777232
1.1338	0.01561918
1.134	0.01437539
1.1342	0.01301282
1.1344	0.01140485
1.1346	0.01257811
1.1348	0.01179346
1.135	0.01166639
1.1352	0.01114483
1.1354	0.008947649
1.1356	0.007655097
1.1358	0.005752904
1.136	0.003822437
1.1362	0.002755651
1.1364	0.002010677
1.1366	0.0006886237
1.1368	-0.00139349
1.137	-0.003661725
1.1372	-0.004521938
1.1374	-0.004408814
1.1376	-0.006566966
1.1378	-0.006461619
1.138	-0.00699059
1.1382	-0.008688912
1.1384	-0.008046171
1.1386	-0.009080737
1.1388	-0.008909981
1.139	-0.009926527
1.1392	-0.01136933
1.1394	-0.01248273
1.1396	-0.0146392
1.1398	-0.01603783
1.14	-0.01860698
1.1402	-0.02028913
1.1404	-0.0200133
1.1406	-0.01828736
1.1408	-0.0151226
1.141	-0.01492596
1.1412	-0.01570207
1.1414	-0.01673897
1.1416	-0.01767806
1.1418	-0.018733
1.142	-0.01975328
1.1422	-0.01984867
1.1424	-0.01988818
1.1426	-0.01941564
1.1428	-0.01926029
1.143	-0.01945292
1.1432	-0.01894529
1.1434	-0.01713911
1.1436	-0.01732694
1.1438	-0.01767476
1.144	-0.0163091
1.1442	-0.0166846
1.1444	-0.01673772
1.1446	-0.01685749
1.1448	-0.0170558
1.145	-0.01588768
1.1452	-0.01638419
1.1454	-0.0173538
1.1456	-0.01589276
1.1458	-0.01307108
1.146	-0.01099604
1.1462	-0.009190152
1.1464	-0.006511902
1.1466	-0.003568377
1.1468	-0.0008497265
1.147	0.002073452
1.1472	0.004818759
1.1474	0.005469241
1.1476	0.006111884
1.1478	0.008892964
1.148	0.01037787
1.1482	0.01310382
1.1484	0.01525873
1.1486	0.01694375
1.1488	0.01727911
1.149	0.01774752
1.1492	0.01882701
1.1494	0.01917693
1.1496	0.01866714
1.1498	0.01958104
1.15	0.0197257
1.1502	0.01905473
1.1504	0.01858377
1.1506	0.01831666
1.1508	0.01765618
1.151	0.01684187
1.1512	0.01547236
1.1514	0.01549512
1.1516	0.01656333
1.1518	0.01769055
1.152	0.01812464
1.1522	0.01763848
1.1524	0.01836584
1.1526	0.01751028
1.1528	0.01657295
1.153	0.01596222
1.1532	0.01484876
1.1534	0.0157628
1.1536	0.01595556
1.1538	0.0143386
1.154	0.01252276
1.1542	0.0118665
1.1544	0.01210561
1.1546	0.01139854
1.1548	0.01080977
1.155	0.01092613
1.1552	0.01257836
1.1554	0.01291061
1.1556	0.01296508
1.1558	0.01064184
1.156	0.007390662
1.1562	0.005682032
1.1564	0.003926366
1.1566	0.002062789
1.1568	0.0001919215
1.157	-0.0006928434
1.1572	-0.001143938
1.1574	-0.0008199752
1.1576	-0.001565882
1.1578	-0.003690672
1.158	-0.006483023
1.1582	-0.008495612
1.1584	-0.008947036
1.1586	-0.008293741
1.1588	-0.01033183
1.159	-0.01042279
1.1592	-0.01117048
1.1594	-0.01222998
1.1596	-0.011455
1.1598	-0.01054282
1.16	-0.01365466
1.1602	-0.01521439
1.1604	-0.01573201
1.1606	-0.01729384
1.1608	-0.01772224
1.161	-0.01877973
1.1612	-0.02135538
1.1614	-0.02334548
1.1616	-0.02262143
1.1618	-0.02375297
1.162	-0.02449956
1.1622	-0.02356357
1.1624	-0.02363933
1.1626	-0.02469176
1.1628	-0.02282781
1.163	-0.02156619
1.1632	-0.02281443
1.1634	-0.02218954
1.1636	-0.02128948
1.1638	-0.02156604
1.164	-0.01912642
1.1642	-0.01797273
1.1644	-0.01877075
1.1646	-0.01787405
1.1648	-0.01551039
1.165	-0.01526718
1.1652	-0.01341617
1.1654	-0.01156135
1.1656	-0.01114216
1.1658	-0.01039199
1.166	-0.007525583
1.1662	-0.006255033
1.1664	-0.004906551
1.1666	-0.003497927
1.1668	-0.002712586
1.167	-0.001180128
1.1672	0.0002986811
1.1674	0.001726215
1.1676	0.001807435
1.1678	0.00169162
1.168	0.004087542
1.1682	0.007490752
1.1684	0.01082161
1.1686	0.01156707
1.1688	0.01181048
1.169	0.0121974
1.1692	0.01233146
1.1694	0.01290511
1.1696	0.01348972
1.1698	0.01541231
1.17	0.01505418
1.1702	0.01450372
1.1704	0.01601631
1.1706	0.0174199
1.1708	0.01637575
1.171	0.01667273
1.1712	0.01803338
1.1714	0.01902648
1.1716	0.01817208
1.1718	0.0183864
1.172	0.01911536
1.1722	0.01861684
1.1724	0.01695672
1.1726	0.01623086
1.1728	0.01643059
1.173	0.01787712
1.1732	0.01859966
1.1734	0.01880912
1.1736	0.01807794
1.1738	0.01649279
1.174	0.01671885
1.1742	0.01611832
1.1744	0.01548498
1.1746	0.01453409
1.1748	0.01367719
1.175	0.01389632
1.1752	0.01392633
1.1754	0.01392137
1.1756	0.01253738
1.1758	0.01142742
1.176	0.0105277
1.1762	0.008162282
1.1764	0.005485524
1.1766	0.004659698
1.1768	0.005083356
1.177	0.004878649
1.1772	0.002460899
1.1774	0.001050868
1.1776	-0.0003219463
1.1778	-0.0009683743
1.178	-0.0007493243
1.1782	-0.002685978
1.1784	-0.00381893
1.1786	-0.004573026
1.1788	-0.005309517
1.179	-0.007226388
1.1792	-0.008383171
1.1794	-0.009321804
1.1796	-0.01190211
1.1798	-0.01337345
1.18	-0.01326056
1.1802	-0.01278976
1.1804	-0.01343785
1.1806	-0.01511816
1.1808	-0.01810602
1.181	-0.0215449
1.1812	-0.02362548
1.1814	-0.02445618
1.1816	-0.02558958
1.1818	-0.02672533
1.182	-0.02782049
1.1822	-0.02595122
1.1824	-0.02314625
1.1826	-0.0214645
1.1828	-0.0215038
1.183	-0.02049893
1.1832	-0.02131836
1.1834	-0.02288466
1.1836	-0.02222515
1.1838	-0.02186659
1.184	-0.02077732
1.1842	-0.01899768
1.1844	-0.01782108
1.1846	-0.01620531
1.1848	-0.01564002
1.185	-0.01482658
1.1852	-0.01439453
1.1854	-0.01372012
1.1856	-0.01181892
1.1858	-0.009350763
1.186	-0.006567013
1.1862	-0.005130711
1.1864	-0.005317404
1.1866	-0.004140238
1.1868	-0.003510384
1.187	-0.002143032
1.1872	0.0006662009
1.1874	0.005434054
1.1876	0.00751309
1.1878	0.006725966
1.188	0.00595694
1.1882	0.00568788
1.1884	0.007157872
1.1886	0.007941592
1.1888	0.009294231
1.189	0.009790507
1.1892	0.01120072
1.1894	0.01165008
1.1896	0.01173204
1.1898	0.01443989
1.19	0.0158509
1.1902	0.01633643
1.1904	0.01506454
1.1906	0.01444501
1.1908	0.01746519
1.191	0.0184345
1.1912	0.01853001
1.1914	0.01822954
1.1916	0.01748349
1.1918	0.01886112
1.192	0.01846978
1.1922	0.01972636
1.1924	0.019058
1.1926	0.01846381
1.1928	0.01731021
1.193	0.01621109
1.1932	0.01560181
1.1934	0.01477345
1.1936	0.01668933
1.1938	0.01541746
1.194	0.01547375
1.1942	0.01476395
1.1944	0.01430515
1.1946	0.0135401
1.1948	0.0115112
1.195	0.01128813
1.1952	0.01207346
1.1954	0.01146818
1.1956	0.009252168
1.1958	0.0081794
1.196	0.006885886
1.1962	0.005171695
1.1964	0.003962954
1.1966	0.004582341
1.1968	0.005197117
1.197	0.002952407
1.1972	0.002853056
1.1974	0.0005636786
1.1976	-0.00249618
1.1978	-0.004127548
1.198	-0.005340886
1.1982	-0.006415562
1.1984	-0.007941056
1.1986	-0.008466356
1.1988	-0.007488788
1.199	-0.006903051
1.1992	-0.009265263
1.1994	-0.01165276
1.1996	-0.01220184
1.1998	-0.01265839
1.2	-0.01285092
1.2002	-0.0131058
1.2004	-0.01413535
1.2006	-0.01538539
1.2008	-0.01518021
1.201	-0.01400433
1.2012	-0.01337482
1.2014	-0.01309857
1.2016	-0.014509
1.2018	-0.01547669
1.202	-0.01630172
1.2022	-0.01596216
1.2024	-0.01546671
1.2026	-0.01534178
1.2028	-0.01474122
1.203	-0.01494067
1.2032	-0.01433459
1.2034	-0.01343096
1.2036	-0.01277651
1.2038	-0.01334409
1.204	-0.01348144
1.2042	-0.01351646
1.2044	-0.01371397
1.2046	-0.01284752
1.2048	-0.01137718
1.205	-0.009984652
1.2052	-0.008939149
1.2054	-0.007910399
1.2056	-0.008672287
1.2058	-0.008579084
1.206	-0.006700814
1.2062	-0.005731628
1.2064	-0.005509754
1.2066	-0.004127589
1.2068	-0.001272923
1.207	0.000367416
1.2072	0.001838107
1.2074	0.00429042
1.2076	0.005946071
1.2078	0.00792222
1.208	0.008230337
1.2082	0.008679143
1.2084	0.00971907
1.2086	0.009766163
1.2088	0.01052096
1.209	0.01186102
1.2092	0.01199654
1.2094	0.01202529
1.2096	0.01222872
1.2098	0.01385636
1.21	0.01362297
1.2102	0.01404195
1.2104	0.01692104
1.2106	0.01784313
1.2108	0.01748546
1.211	0.01704707
1.2112	0.01789746
1.2114	0.01762819
1.2116	0.01830134
1.2118	0.01958976
1.212	0.0194606
1.2122	0.01886336
1.2124	0.01855647
1.2126	0.01805823
1.2128	0.01754389
1.213	0.01602188
1.2132	0.01521614
1.2134	0.01476608
1.2136	0.01509365
1.2138	0.01543572
1.214	0.01410092
1.2142	0.01271794
1.2144	0.0116541
1.2146	0.01120894
1.2148	0.01209436
1.215	0.01101352
1.2152	0.01002242
1.2154	0.009196402
1.2156	0.007901017
1.2158	0.007037602
1.216	0.005792899
1.2162	0.004960205
1.2164	0.005038475
1.2166	0.003943562
1.2168	0.001306452
1.217	-0.0007957192
1.2172	-0.001084402
1.2174	-0.002625559
1.2176	-0.002985915
1.2178	-0.003832821
1.218	-0.00469973
1.2182	-0.00610331
1.2184	-0.008134013
1.2186	-0.007937148
1.2188	-0.008356164
1.219	-0.008855968
1.2192	-0.0107229
1.2194	-0.01153015
1.2196	-0.01367628
1.2198	-0.01520911
1.22	-0.01602295
1.2202	-0.01624377
1.2204	-0.01480781
1.2206	-0.01316526
1.2208	-0.01467623
1.221	-0.01686476
1.2212	-0.01712646
1.2214	-0.01581255
1.2216	-0.01421578
1.2218	-0.01382085
1.222	-0.01494808
1.2222	-0.01621075
1.2224	-0.01617995
1.2226	-0.01463566
1.2228	-0.01468888
1.223	-0.01604962
1.2232	-0.01505788
1.2234	-0.01390128
1.2236	-0.01274047
1.2238	-0.01077143
1.224	-0.009685817
1.2242	-0.009702917
1.2244	-0.008443827
1.2246	-0.008194339
1.2248	-0.008785492
1.225	-0.008908637
1.2252	-0.007682835
1.2254	-0.006284315
1.2256	-0.00685832
1.2258	-0.006355436
1.226	-0.004747568
1.2262	-0.003486307
1.2264	-0.003131991
1.2266	-0.004009836
1.2268	-0.00163799
1.227	-0.0005393019
1.2272	0.001434044
1.2274	0.002532924
1.2276	0.004572303
1.2278	0.005586223
1.228	0.005684583
1.2282	0.005530625
1.2284	0.007311259
1.2286	0.007503053
1.2288	0.007505665
1.229	0.008242628
1.2292	0.009851594
1.2294	0.01125342
1.2296	0.01105638
1.2298	0.009949441
1.23	0.01076803
1.2302	0.0105051
1.2304	0.01164826
1.2306	0.0130838
1.2308	0.01317806
1.231	0.01301367
1.2312	0.01247159
1.2314	0.0143107
1.2316	0.0157577
1.2318	0.01650164
1.232	0.01767593
1.2322	0.01719054
1.2324	0.01715332
1.2326	0.01779152
1.2328	0.01744477
1.233	0.01694555
1.2332	0.01560218
1.2334	0.0150826
1.2336	0.0156037
1.2338	0.01643376
1.234	0.015953
1.2342	0.015908
1.2344	0.01640785
1.2346	0.01563442
1.2348	0.01395026
1.235	0.01299883
1.2352	0.01099606
1.2354	0.009035539
1.2356	0.007418714
1.2358	0.005410903
1.236	0.003816975
1.2362	0.003697621
1.2364	0.002555283
1.2366	0.001417955
1.2368	-0.0002628418
1.237	-0.002555076
1.2372	-0.002475638
1.2374	-0.003277591
1.2376	-0.004136583
1.2378	-0.006717943
1.238	-0.008389847
1.2382	-0.008422499
1.2384	-0.01023894
1.2386	-0.01259993
1.2388	-0.01147155
1.239	-0.0102614
1.2392	-0.01001513
1.2394	-0.011177
1.2396	-0.01301916
1.2398	-0.01544171
1.24	-0.01625296
1.2402	-0.01738858
1.2404	-0.01620277
1.2406	-0.01567782
1.2408	-0.01601241
1.241	-0.01580754
1.2412	-0.01693206
1.2414	-0.01674409
1.2416	-0.01658253
1.2418	-0.01776629
1.242	-0.0179251
1.2422	-0.01796356
1.2424	-0.01632128
1.2426	-0.01515434
1.2428	-0.01419627
1.243	-0.01301554
1.2432	-0.01466055
1.2434	-0.01520558
1.2436	-0.01270334
1.2438	-0.01170368
1.244	-0.01055716
1.2442	-0.009872188
1.2444	-0.0105445
1.2446	-0.01038109
1.2448	-0.01178364
1.245	-0.01219337
1.2452	-0.00963016
1.2454	-0.008038075
1.2456	-0.008374742
1.2458	-0.008615247
1.246	-0.007054908
1.2462	-0.005035154
1.2464	-0.003094557
1.2466	-0.001758926
1.2468	-0.002037125
1.247	-0.001056197
1.2472	-0.0003653546
1.2474	0.001158596
1.2476	0.002758572
1.2478	0.004768889
1.248	0.005887402
1.2482	0.007642644
1.2484	0.007707841
1.2486	0.008794497
1.2488	0.009857286
1.249	0.01098624
1.2492	0.01203405
1.2494	0.01375781
1.2496	0.01512765
1.2498	0.01537307
1.25	0.01624471
1.2502	0.0165503
1.2504	0.01424622
1.2506	0.01319574
1.2508	0.01318338
1.251	0.0143753
1.2512	0.0158512
1.2514	0.01557022
1.2516	0.01596459
1.2518	0.01674766
1.252	0.01834937
1.2522	0.01817326
1.2524	0.0183254
1.2526	0.01794121
1.2528	0.01778339
1.253	0.01641168
1.2532	0.01416164
1.2534	0.01376984
1.2536	0.01503743
1.2538	0.0154245
1.254	0.01554828
1.2542	0.01523548
1.2544	0.01614288
1.2546	0.01674014
1.2548	0.01650904
1.255	0.01535613
1.2552	0.01346629
1.2554	0.01147292
1.2556	0.009964398
1.2558	0.006349545
1.256	0.003945622
1.2562	0.002878892
1.2564	0.0005248587
1.2566	-0.001170155
1.2568	-0.002201564
1.257	-0.003393604
1.2572	-0.004224746
1.2574	-0.004736304
1.2576	-0.006401498
1.2578	-0.008403158
1.258	-0.01038678
1.2582	-0.01058414
1.2584	-0.009640319
1.2586	-0.01121903
1.2588	-0.01347619
1.259	-0.01364561
1.2592	-0.01335697
1.2594	-0.01455402
1.2596	-0.01497673
1.2598	-0.01476428
1.26	-0.01456029
1.2602	-0.01619592
1.2604	-0.01754551
1.2606	-0.01832835
1.2608	-0.01822787
1.261	-0.01844416
1.2612	-0.01777236
1.2614	-0.01910906
1.2616	-0.01943924
1.2618	-0.02068109
1.262	-0.02156424
1.2622	-0.02044456
1.2624	-0.01988905
1.2626	-0.01956531
1.2628	-0.02014544
1.263	-0.01944082
1.2632	-0.01839062
1.2634	-0.0176759
1.2636	-0.01654174
1.2638	-0.01683429
1.264	-0.01576535
1.2642	-0.0138803
1.2644	-0.01369113
1.2646	-0.01239493
1.2648	-0.01110141
1.265	-0.01028125
1.2652	-0.01009794
1.2654	-0.009478391
1.2656	-0.009815054
1.2658	-0.01077225
1.266	-0.009644188
1.2662	-0.008737931
1.2664	-0.006239492
1.2666	-0.003896623
1.2668	-0.002968582
1.267	-0.001962144
1.2672	-0.001398469
1.2674	-1.416945e-5
1.2676	0.001118534
1.2678	0.00257952
1.268	0.003206751
1.2682	0.003945721
1.2684	0.005583582
1.2686	0.008017936
1.2688	0.009307337
1.269	0.01060442
1.2692	0.01288762
1.2694	0.01525065
1.2696	0.01873627
1.2698	0.01971171
1.27	0.02004691
1.2702	0.02032095
1.2704	0.02205493
1.2706	0.02425361
1.2708	0.02394336
1.271	0.02400104
1.2712	0.02178502
1.2714	0.02095411
1.2716	0.02114443
1.2718	0.02150675
1.272	0.02099549
1.2722	0.01985634
1.2724	0.01976243
1.2726	0.01703278
1.2728	0.01664102
1.273	0.01586486
1.2732	0.01530551
1.2734	0.01441342
1.2736	0.01383176
1.2738	0.01318376
1.274	0.01296922
1.2742	0.01341107
1.2744	0.01067056
1.2746	0.01090825
1.2748	0.01189511
1.275	0.00986898
1.2752	0.008588749
1.2754	0.009031941
1.2756	0.007579169
1.2758	0.00556898
1.276	0.004098466
1.2762	0.003318695
1.2764	0.002234435
1.2766	-6.326368e-6
1.2768	-0.002369335
1.277	-0.003021919
1.2772	-0.002902175
1.2774	-0.003400688
1.2776	-0.005445749
1.2778	-0.005094803
1.278	-0.005829582
1.2782	-0.006838823
1.2784	-0.006715063
1.2786	-0.007096792
1.2788	-0.007788998
1.279	-0.008327802
1.2792	-0.009959817
1.2794	-0.01110294
1.2796	-0.01032615
1.2798	-0.01191905
1.28	-0.01425004
1.2802	-0.01501538
1.2804	-0.01540671
1.2806	-0.01489796
1.2808	-0.01463705
1.281	-0.01474989
1.2812	-0.01428661
1.2814	-0.01500526
1.2816	-0.01602013
1.2818	-0.01684286
1.282	-0.01725454
1.2822	-0.01817345
1.2824	-0.01683199
1.2826	-0.01574909
1.2828	-0.0176463
1.283	-0.01701656
1.2832	-0.01745162
1.2834	-0.01713596
1.2836	-0.01533144
1.2838	-0.01490692
1.284	-0.01321723
1.2842	-0.0131891
1.2844	-0.01271999
1.2846	-0.01211065
1.2848	-0.01065564
1.285	-0.008838569
1.2852	-0.007839943
1.2854	-0.006681784
1.2856	-0.007644093
1.2858	-0.008099853
1.286	-0.007337846
1.2862	-0.004495347
1.2864	-0.00417691
1.2866	-0.004145816
1.2868	-0.003218678
1.287	-0.002688228
1.2872	-0.002070566
1.2874	-0.0001958539
1.2876	0.001713663
1.2878	0.002303142
1.288	0.002889191
1.2882	0.005098365
1.2884	0.006291664
1.2886	0.006925881
1.2888	0.007106433
1.289	0.006416244
1.2892	0.00724362
1.2894	0.007909968
1.2896	0.007911284
1.2898	0.008292262
1.29	0.009984858
1.2902	0.01015552
1.2904	0.0109997
1.2906	0.01277595
1.2908	0.01273974
1.291	0.01432987
1.2912	0.01601091
1.2914	0.01595599
1.2916	0.01611542
1.2918	0.01861945
1.292	0.02003206
