Source File Name:	Scan
Signal:	Time - Ref2 Voltage - Samples

Time	Time Signal
[ s ]	[ V ]
0	-0.01213523
0.0002	-0.01142499
0.0004	-0.01094916
0.0006	-0.01174296
0.0008	-0.01084414
0.001	-0.01031357
0.0012	-0.01067274
0.0014	-0.009736396
0.0016	-0.01099629
0.0018	-0.01310301
0.002	-0.01297641
0.0022	-0.01301648
0.0024	-0.01442315
0.0026	-0.01336358
0.0028	-0.01286356
0.003	-0.0125217
0.0032	-0.01175484
0.0034	-0.01212155
0.0036	-0.01362454
0.0038	-0.01227557
0.004	-0.01032539
0.0042	-0.008718877
0.0044	-0.00724754
0.0046	-0.007792437
0.0048	-0.007222085
0.005	-0.005040748
0.0052	-0.004673876
0.0054	-0.003936381
0.0056	-0.004066196
0.0058	-0.00242069
0.006	-0.002335458
0.0062	-0.001252583
0.0064	-0.0004736355
0.0066	-0.0004854189
0.0068	0.0006398353
0.007	0.002192101
0.0072	0.00229072
0.0074	0.002939979
0.0076	0.005403357
0.0078	0.006169117
0.008	0.00832122
0.0082	0.009539553
0.0084	0.008704619
0.0086	0.009046867
0.0088	0.01050933
0.009	0.01141964
0.0092	0.01190349
0.0094	0.0109152
0.0096	0.01132322
0.0098	0.01195005
0.01	0.01150487
0.0102	0.01159356
0.0104	0.01221601
0.0106	0.01302327
0.0108	0.01337111
0.011	0.0133995
0.0112	0.01292488
0.0114	0.01370114
0.0116	0.01386239
0.0118	0.01359929
0.012	0.01531945
0.0122	0.01485919
0.0124	0.01456175
0.0126	0.01310046
0.0128	0.0134144
0.013	0.01268958
0.0132	0.01204528
0.0134	0.01079355
0.0136	0.009746506
0.0138	0.008234654
0.014	0.007158882
0.0142	0.005587121
0.0144	0.004969844
0.0146	0.003890584
0.0148	0.001868068
0.015	0.001804432
0.0152	0.001822442
0.0154	-0.0007151064
0.0156	-0.001774227
0.0158	-0.001368012
0.016	2.756481e-5
0.0162	-0.0008653319
0.0164	-0.002530353
0.0166	-0.001680833
0.0168	-0.0028114
0.017	-0.003402784
0.0172	-0.002479856
0.0174	-0.004234883
0.0176	-0.007464644
0.0178	-0.007471465
0.018	-0.008454983
0.0182	-0.009991338
0.0184	-0.009284355
0.0186	-0.008498288
0.0188	-0.00718166
0.019	-0.006965883
0.0192	-0.007702173
0.0194	-0.009538901
0.0196	-0.01068708
0.0198	-0.01060646
0.02	-0.01159982
0.0202	-0.01341869
0.0204	-0.01400537
0.0206	-0.01214206
0.0208	-0.01100621
0.021	-0.01170682
0.0212	-0.01237565
0.0214	-0.01189632
0.0216	-0.0115546
0.0218	-0.01164499
0.022	-0.01176576
0.0222	-0.01191471
0.0224	-0.01181207
0.0226	-0.01136384
0.0228	-0.01069972
0.023	-0.01141277
0.0232	-0.01135607
0.0234	-0.01129704
0.0236	-0.01057016
0.0238	-0.008524833
0.024	-0.00801763
0.0242	-0.007309857
0.0244	-0.006822325
0.0246	-0.005181571
0.0248	-0.004361523
0.025	-0.00412696
0.0252	-0.004228787
0.0254	-0.003842957
0.0256	-0.002173185
0.0258	-0.001201584
0.026	0.001499533
0.0262	0.003769843
0.0264	0.003942668
0.0266	0.004480586
0.0268	0.006554145
0.027	0.007307926
0.0272	0.006938428
0.0274	0.00833394
0.0276	0.00824006
0.0278	0.008495642
0.028	0.008930367
0.0282	0.009909304
0.0284	0.01045673
0.0286	0.01034508
0.0288	0.01153324
0.029	0.01219872
0.0292	0.01303542
0.0294	0.0147104
0.0296	0.01477521
0.0298	0.01404042
0.03	0.01394339
0.0302	0.012279
0.0304	0.01127506
0.0306	0.01085524
0.0308	0.01076989
0.031	0.0105536
0.0312	0.01098431
0.0314	0.01269708
0.0316	0.01349635
0.0318	0.01442219
0.032	0.01432421
0.0322	0.01458849
0.0324	0.01406784
0.0326	0.01319614
0.0328	0.01215394
0.033	0.01073732
0.0332	0.01040168
0.0334	0.01040545
0.0336	0.009408186
0.0338	0.009177845
0.034	0.007893622
0.0342	0.006971532
0.0344	0.007859612
0.0346	0.006287468
0.0348	0.005868621
0.035	0.005501672
0.0352	0.002636294
0.0354	0.001504187
0.0356	0.0008099485
0.0358	-0.0007503069
0.036	-0.002920848
0.0362	-0.001528864
0.0364	-0.00209989
0.0366	-0.004820728
0.0368	-0.006211465
0.037	-0.006298529
0.0372	-0.007833601
0.0374	-0.008501765
0.0376	-0.009883489
0.0378	-0.0109922
0.038	-0.01143071
0.0382	-0.01213846
0.0384	-0.01235961
0.0386	-0.0121645
0.0388	-0.01246927
0.039	-0.013196
0.0392	-0.01191976
0.0394	-0.01266469
0.0396	-0.01283218
0.0398	-0.0128848
0.04	-0.01258165
0.0402	-0.01276013
0.0404	-0.01300222
0.0406	-0.01202602
0.0408	-0.01191065
0.041	-0.01252689
0.0412	-0.01219309
0.0414	-0.0121829
0.0416	-0.01103474
0.0418	-0.01032406
0.042	-0.01017234
0.0422	-0.01176266
0.0424	-0.01184397
0.0426	-0.01164352
0.0428	-0.01022653
0.043	-0.006960914
0.0432	-0.006012314
0.0434	-0.006326689
0.0436	-0.006764798
0.0438	-0.00738539
0.044	-0.005772912
0.0442	-0.003782382
0.0444	-0.003249914
0.0446	-0.002510586
0.0448	-0.001833365
0.045	-0.002034091
0.0452	-0.0004164381
0.0454	0.001146148
0.0456	0.001976228
0.0458	0.001857892
0.046	0.003188346
0.0462	0.003826008
0.0464	0.005584905
0.0466	0.007022184
0.0468	0.006533775
0.047	0.005437768
0.0472	0.005246729
0.0474	0.006460911
0.0476	0.007478954
0.0478	0.008316028
0.048	0.009495598
0.0482	0.009300315
0.0484	0.009311463
0.0486	0.01028707
0.0488	0.01060924
0.049	0.01092396
0.0492	0.01197009
0.0494	0.0127631
0.0496	0.01314927
0.0498	0.01285709
0.05	0.01326797
0.0502	0.01335677
0.0504	0.01315
0.0506	0.01315387
0.0508	0.01326431
0.051	0.01269958
0.0512	0.01301979
0.0514	0.01237181
0.0516	0.01373853
0.0518	0.01278395
0.052	0.01244453
0.0522	0.01322291
0.0524	0.01286136
0.0526	0.01204287
0.0528	0.00977139
0.053	0.007629637
0.0532	0.004813849
0.0534	0.003537366
0.0536	0.002751577
0.0538	0.002421505
0.054	0.001637385
0.0542	0.001576565
0.0544	0.001789619
0.0546	0.0005005717
0.0548	-0.001080715
0.055	-0.001919007
0.0552	-0.001811109
0.0554	-0.002967524
0.0556	-0.005144246
0.0558	-0.005715373
0.056	-0.00420939
0.0562	-0.004231818
0.0564	-0.00498883
0.0566	-0.005185148
0.0568	-0.005084953
0.057	-0.004306854
0.0572	-0.004216744
0.0574	-0.006577954
0.0576	-0.009154506
0.0578	-0.01021179
0.058	-0.01014633
0.0582	-0.008930007
0.0584	-0.01015189
0.0586	-0.01072763
0.0588	-0.01161816
0.059	-0.01119078
0.0592	-0.01158843
0.0594	-0.01265003
0.0596	-0.01432672
0.0598	-0.01254323
0.06	-0.01182545
0.0602	-0.01241266
0.0604	-0.01119908
0.0606	-0.0106055
0.0608	-0.01216677
0.061	-0.01453789
0.0612	-0.01431352
0.0614	-0.01419606
0.0616	-0.0133604
0.0618	-0.01316089
0.062	-0.01433372
0.0622	-0.01399362
0.0624	-0.01409384
0.0626	-0.01325006
0.0628	-0.01128842
0.063	-0.01035734
0.0632	-0.00998022
0.0634	-0.009846008
0.0636	-0.007726862
0.0638	-0.006253319
0.064	-0.006179084
0.0642	-0.006892966
0.0644	-0.007341752
0.0646	-0.004312929
0.0648	-0.003682382
0.065	-0.003798502
0.0652	-0.002389987
0.0654	-0.0004525575
0.0656	0.002223043
0.0658	0.002647108
0.066	0.00360132
0.0662	0.003052522
0.0664	0.00229044
0.0666	0.004074502
0.0668	0.003802633
0.067	0.003030801
0.0672	0.006469677
0.0674	0.008716177
0.0676	0.008485746
0.0678	0.007524497
0.068	0.007705347
0.0682	0.008949662
0.0684	0.009570177
0.0686	0.008951212
0.0688	0.008966499
0.069	0.009897927
0.0692	0.009841578
0.0694	0.01028166
0.0696	0.01029016
0.0698	0.01103659
0.07	0.01287554
0.0702	0.01296362
0.0704	0.01307931
0.0706	0.0117677
0.0708	0.01255203
0.071	0.01249499
0.0712	0.01217502
0.0714	0.01322255
0.0716	0.01293667
0.0718	0.01220301
0.072	0.01166307
0.0722	0.009741449
0.0724	0.009490425
0.0726	0.008315201
0.0728	0.008421304
0.073	0.009208919
0.0732	0.008693395
0.0734	0.008515423
0.0736	0.007521722
0.0738	0.007613554
0.074	0.007310212
0.0742	0.006729446
0.0744	0.005643741
0.0746	0.004803191
0.0748	0.004270851
0.075	0.0035071
0.0752	0.003262507
0.0754	0.002650164
0.0756	0.002020533
0.0758	0.001217537
0.076	0.0005600026
0.0762	-0.001341349
0.0764	-0.001298251
0.0766	-0.003806166
0.0768	-0.005273898
0.077	-0.005618859
0.0772	-0.006874449
0.0774	-0.008101932
0.0776	-0.008769192
0.0778	-0.009213315
0.078	-0.00933042
0.0782	-0.00983508
0.0784	-0.01032973
0.0786	-0.01133355
0.0788	-0.01160119
0.079	-0.01143155
0.0792	-0.01151849
0.0794	-0.01187787
0.0796	-0.01275354
0.0798	-0.01172747
0.08	-0.01223389
0.0802	-0.01254301
0.0804	-0.01304705
0.0806	-0.01197784
0.0808	-0.01287035
0.081	-0.01356394
0.0812	-0.01318008
0.0814	-0.01491198
0.0816	-0.01503581
0.0818	-0.01388167
0.082	-0.01197158
0.0822	-0.01119206
0.0824	-0.01210327
0.0826	-0.0116983
0.0828	-0.01146496
0.083	-0.01033878
0.0832	-0.008735188
0.0834	-0.007215601
0.0836	-0.006484091
0.0838	-0.006024429
0.084	-0.005093761
0.0842	-0.003104701
0.0844	-0.001864
0.0846	-0.0008052865
0.0848	-0.001512783
0.085	-0.00168446
0.0852	-0.000159634
0.0854	0.0005807555
0.0856	0.00189455
0.0858	0.00318978
0.086	0.004896575
0.0862	0.007189115
0.0864	0.007711935
0.0866	0.009847617
0.0868	0.01035977
0.087	0.01049645
0.0872	0.01061153
0.0874	0.009482023
0.0876	0.01078542
0.0878	0.01137924
0.088	0.01201038
0.0882	0.0119171
0.0884	0.01208481
0.0886	0.01375669
0.0888	0.01243427
0.089	0.01091416
0.0892	0.01080047
0.0894	0.01007278
0.0896	0.01056581
0.0898	0.01013558
0.09	0.01034461
0.0902	0.01069
0.0904	0.01186648
0.0906	0.01170068
0.0908	0.01287687
0.091	0.01456892
0.0912	0.01380421
0.0914	0.01322541
0.0916	0.01211416
0.0918	0.0102894
0.092	0.008634573
0.0922	0.008792354
0.0924	0.008004774
0.0926	0.009001788
0.0928	0.00979082
0.093	0.009621058
0.0932	0.008346775
0.0934	0.005827336
0.0936	0.004369414
0.0938	0.005336748
0.094	0.005591205
0.0942	0.003787966
0.0944	0.003735238
0.0946	0.005156442
0.0948	0.003989696
0.095	0.00365082
0.0952	0.003478566
0.0954	0.002347554
0.0956	0.001940354
0.0958	-5.787557e-5
0.096	-0.001448698
0.0962	-0.003182744
0.0964	-0.004245612
0.0966	-0.005404879
0.0968	-0.00645095
0.097	-0.007275463
0.0972	-0.007752495
0.0974	-0.007611058
0.0976	-0.007771506
0.0978	-0.008855877
0.098	-0.009132805
0.0982	-0.01008803
0.0984	-0.01110023
0.0986	-0.01155334
0.0988	-0.01201158
0.099	-0.01243092
0.0992	-0.01290398
0.0994	-0.01312231
0.0996	-0.01305559
0.0998	-0.01198356
0.1	-0.01318262
0.1002	-0.01520573
0.1004	-0.01421648
0.1006	-0.0126492
0.1008	-0.01348626
0.101	-0.01430334
0.1012	-0.0145088
0.1014	-0.01390986
0.1016	-0.01437764
0.1018	-0.01418173
0.102	-0.01305196
0.1022	-0.01268712
0.1024	-0.01290642
0.1026	-0.01101775
0.1028	-0.009830896
0.103	-0.009701865
0.1032	-0.009735622
0.1034	-0.009068052
0.1036	-0.009182535
0.1038	-0.008775978
0.104	-0.007582779
0.1042	-0.005645868
0.1044	-0.00399173
0.1046	-0.002309541
0.1048	-0.0006065831
0.105	-0.00130964
0.1052	-0.001663219
0.1054	-0.001076964
0.1056	-0.001038583
0.1058	0.0002972964
0.106	0.001313347
0.1062	0.001672179
0.1064	0.003113718
0.1066	0.003792234
0.1068	0.005489615
0.107	0.005976835
0.1072	0.005484099
0.1074	0.005876685
0.1076	0.008945786
0.1078	0.01073305
0.108	0.01058125
0.1082	0.01125964
0.1084	0.01069109
0.1086	0.00992578
0.1088	0.01106511
0.109	0.01150837
0.1092	0.01109453
0.1094	0.0128382
0.1096	0.01339487
0.1098	0.01313396
0.11	0.01396742
0.1102	0.01459187
0.1104	0.01437429
0.1106	0.01667696
0.1108	0.01835813
0.111	0.01686093
0.1112	0.01688832
0.1114	0.01636214
0.1116	0.01544861
0.1118	0.01499956
0.112	0.01494953
0.1122	0.01253073
0.1124	0.0109213
0.1126	0.009771009
0.1128	0.009866597
0.113	0.01100806
0.1132	0.01061656
0.1134	0.008799779
0.1136	0.00828085
0.1138	0.006540488
0.114	0.004429471
0.1142	0.004242289
0.1144	0.003580218
0.1146	0.003188291
0.1148	0.002904414
0.115	0.0009018324
0.1152	7.063698e-5
0.1154	0.0003951491
0.1156	-0.001655166
0.1158	-0.002047251
0.116	-0.0005831756
0.1162	-0.0009465348
0.1164	-0.003171527
0.1166	-0.005180904
0.1168	-0.006145854
0.117	-0.006752253
0.1172	-0.007277081
0.1174	-0.009496501
0.1176	-0.01004899
0.1178	-0.009607878
0.118	-0.009517498
0.1182	-0.008759071
0.1184	-0.008510856
0.1186	-0.01051909
0.1188	-0.01222802
0.119	-0.01374344
0.1192	-0.01488404
0.1194	-0.01558527
0.1196	-0.01605904
0.1198	-0.01517695
0.12	-0.01416394
0.1202	-0.01413548
0.1204	-0.01540638
0.1206	-0.01553291
0.1208	-0.01737333
0.121	-0.01561725
0.1212	-0.01391563
0.1214	-0.01395
0.1216	-0.01404491
0.1218	-0.01382353
0.122	-0.0120139
0.1222	-0.009333298
0.1224	-0.008988045
0.1226	-0.008339738
0.1228	-0.008658755
0.123	-0.009131422
0.1232	-0.009691061
0.1234	-0.009584196
0.1236	-0.008183412
0.1238	-0.007647688
0.124	-0.008798076
0.1242	-0.007469041
0.1244	-0.005633513
0.1246	-0.004238612
0.1248	-0.003136558
0.125	-0.001862306
0.1252	0.000480412
0.1254	0.001490267
0.1256	0.00243049
0.1258	0.003694616
0.126	0.002566159
0.1262	0.002473132
0.1264	0.003432824
0.1266	0.004952451
0.1268	0.006772053
0.127	0.007329382
0.1272	0.007378957
0.1274	0.009221007
0.1276	0.01215214
0.1278	0.01290245
0.128	0.01286225
0.1282	0.01165225
0.1284	0.01200716
0.1286	0.01236045
0.1288	0.0140448
0.129	0.01515805
0.1292	0.01518922
0.1294	0.01326857
0.1296	0.01313767
0.1298	0.01434063
0.13	0.01647147
0.1302	0.01731791
0.1304	0.01590923
0.1306	0.01508276
0.1308	0.01507469
0.131	0.01514381
0.1312	0.01428929
0.1314	0.01337192
0.1316	0.01217502
0.1318	0.00957917
0.132	0.008656186
0.1322	0.00937175
0.1324	0.009094323
0.1326	0.007925957
0.1328	0.006786253
0.133	0.00663008
0.1332	0.005685498
0.1334	0.003297315
0.1336	0.003848435
0.1338	0.003198785
0.134	0.001347655
0.1342	0.001174885
0.1344	0.001320672
0.1346	0.001389657
0.1348	0.001877541
0.135	0.002704499
0.1352	0.002458753
0.1354	0.002363551
0.1356	0.001926225
0.1358	0.001843986
0.136	0.0007968592
0.1362	-0.002037414
0.1364	-0.004322984
0.1366	-0.005303021
0.1368	-0.006426976
0.137	-0.005968726
0.1372	-0.005807033
0.1374	-0.008098267
0.1376	-0.007360734
0.1378	-0.006264641
0.138	-0.006656529
0.1382	-0.007877584
0.1384	-0.009077835
0.1386	-0.008762832
0.1388	-0.009593512
0.139	-0.01080751
0.1392	-0.01216984
0.1394	-0.01313219
0.1396	-0.01299503
0.1398	-0.01309518
0.14	-0.0127549
0.1402	-0.01300275
0.1404	-0.01324571
0.1406	-0.01388756
0.1408	-0.01448742
0.141	-0.01554685
0.1412	-0.01433282
0.1414	-0.01271282
0.1416	-0.0136297
0.1418	-0.01218965
0.142	-0.01178343
0.1422	-0.01185601
0.1424	-0.01071218
0.1426	-0.008874141
0.1428	-0.007592392
0.143	-0.008350597
0.1432	-0.008475262
0.1434	-0.008195814
0.1436	-0.008444168
0.1438	-0.008775106
0.144	-0.007917617
0.1442	-0.005754083
0.1444	-0.004461672
0.1446	-0.004621005
0.1448	-0.004141902
0.145	-0.004160436
0.1452	-0.002122994
0.1454	0.0003889237
0.1456	0.001594507
0.1458	0.002174778
0.146	0.001825594
0.1462	0.001544131
0.1464	0.003146528
0.1466	0.006253105
0.1468	0.007507517
0.147	0.005959388
0.1472	0.007073521
0.1474	0.007230248
0.1476	0.007358704
0.1478	0.008611206
0.148	0.008619239
0.1482	0.009391265
0.1484	0.009243016
0.1486	0.008703573
0.1488	0.008484244
0.149	0.008501183
0.1492	0.009442463
0.1494	0.01105727
0.1496	0.01128271
0.1498	0.0109051
0.15	0.01150863
0.1502	0.01306412
0.1504	0.01356532
0.1506	0.01490376
0.1508	0.01485631
0.151	0.01473753
0.1512	0.01348405
0.1514	0.01168876
0.1516	0.0119958
0.1518	0.01219464
0.152	0.01208965
0.1522	0.0123584
0.1524	0.01210559
0.1526	0.01081692
0.1528	0.01052358
0.153	0.00993494
0.1532	0.008875327
0.1534	0.008807353
0.1536	0.008175141
0.1538	0.006311501
0.154	0.005748282
0.1542	0.004594493
0.1544	0.005333714
0.1546	0.007287664
0.1548	0.006647556
0.155	0.005791008
0.1552	0.003413293
0.1554	0.0006849605
0.1556	-0.0008019606
0.1558	-0.0007454635
0.156	-0.000852577
0.1562	-0.002927908
0.1564	-0.005000373
0.1566	-0.005751575
0.1568	-0.005645954
0.157	-0.005297102
0.1572	-0.006930238
0.1574	-0.00773264
0.1576	-0.007520886
0.1578	-0.008445416
0.158	-0.009721953
0.1582	-0.01133782
0.1584	-0.01268904
0.1586	-0.01232741
0.1588	-0.0120191
0.159	-0.01349806
0.1592	-0.01460445
0.1594	-0.01410365
0.1596	-0.0129473
0.1598	-0.01200195
0.16	-0.01158571
0.1602	-0.01131083
0.1604	-0.01269634
0.1606	-0.01310545
0.1608	-0.01080762
0.161	-0.01093751
0.1612	-0.01212033
0.1614	-0.01216906
0.1616	-0.01302215
0.1618	-0.01266245
0.162	-0.01341859
0.1622	-0.01420179
0.1624	-0.01301915
0.1626	-0.01123615
0.1628	-0.009435383
0.163	-0.01023652
0.1632	-0.01103178
0.1634	-0.009388765
0.1636	-0.008728069
0.1638	-0.007651318
0.164	-0.004560089
0.1642	-0.003753358
0.1644	-0.003747837
0.1646	-0.004202628
0.1648	-0.004416248
0.165	-0.002200596
0.1652	-0.001134819
0.1654	0.0003535177
0.1656	0.001325522
0.1658	0.002516639
0.166	0.004159227
0.1662	0.005667992
0.1664	0.004947918
0.1666	0.005193406
0.1668	0.0070499
0.167	0.008469356
0.1672	0.008210965
0.1674	0.00746458
0.1676	0.006292037
0.1678	0.007515398
0.168	0.00843457
0.1682	0.009440953
0.1684	0.01164893
0.1686	0.01211148
0.1688	0.01142898
0.169	0.01115513
0.1692	0.01209817
0.1694	0.01235473
0.1696	0.01394662
0.1698	0.01471507
0.17	0.01315567
0.1702	0.01308112
0.1704	0.01382529
0.1706	0.01309191
0.1708	0.01239023
0.171	0.01372682
0.1712	0.01403124
0.1714	0.01355358
0.1716	0.01308323
0.1718	0.01317868
0.172	0.01294189
0.1722	0.01143877
0.1724	0.01094228
0.1726	0.01109487
0.1728	0.009259759
0.173	0.008613312
0.1732	0.006816016
0.1734	0.006348852
0.1736	0.007573632
0.1738	0.005382174
0.174	0.002702371
0.1742	0.003822075
0.1744	0.004294808
0.1746	0.00444874
0.1748	0.003052879
0.175	0.002806081
0.1752	0.0009198021
0.1754	-0.0003104458
0.1756	0.0003487365
0.1758	-0.00072001
0.176	-0.001526856
0.1762	-0.002293853
0.1764	-0.002541196
0.1766	-0.004643399
0.1768	-0.004819611
0.177	-0.005901009
0.1772	-0.008230661
0.1774	-0.008721409
0.1776	-0.009172706
0.1778	-0.008424667
0.178	-0.008557476
0.1782	-0.009863291
0.1784	-0.01090912
0.1786	-0.01073683
0.1788	-0.01131838
0.179	-0.009817689
0.1792	-0.009483496
0.1794	-0.01059886
0.1796	-0.01239191
0.1798	-0.01313273
0.18	-0.0127108
0.1802	-0.01291865
0.1804	-0.01330596
0.1806	-0.01215138
0.1808	-0.01168323
0.181	-0.01331533
0.1812	-0.01437669
0.1814	-0.01535682
0.1816	-0.01518096
0.1818	-0.01490279
0.182	-0.01409068
0.1822	-0.01306855
0.1824	-0.0135285
0.1826	-0.01324929
0.1828	-0.01180397
0.183	-0.01128157
0.1832	-0.01074082
0.1834	-0.01071255
0.1836	-0.009229021
0.1838	-0.008150828
0.184	-0.007960156
0.1842	-0.005928592
0.1844	-0.004558665
0.1846	-0.003053931
0.1848	-0.001488735
0.185	-0.001755634
0.1852	-0.001594004
0.1854	-0.0009395289
0.1856	0.001198383
0.1858	0.002095471
0.186	0.002216924
0.1862	0.003729222
0.1864	0.006105145
0.1866	0.00699169
0.1868	0.0063784
0.187	0.005199675
0.1872	0.005036403
0.1874	0.006544201
0.1876	0.00959074
0.1878	0.01166304
0.188	0.01212843
0.1882	0.01054242
0.1884	0.01063511
0.1886	0.010405
0.1888	0.01256763
0.189	0.01398976
0.1892	0.01179194
0.1894	0.01054915
0.1896	0.009842808
0.1898	0.009056989
0.19	0.01001522
0.1902	0.01047799
0.1904	0.01067578
0.1906	0.01237177
0.1908	0.01301138
0.191	0.01208105
0.1912	0.01171207
0.1914	0.01094405
0.1916	0.01066773
0.1918	0.01119368
0.192	0.009879791
0.1922	0.01047723
0.1924	0.009913879
0.1926	0.01099047
0.1928	0.009482414
0.193	0.009301711
0.1932	0.009374256
0.1934	0.009262391
0.1936	0.00773281
0.1938	0.006250146
0.194	0.00516544
0.1942	0.005398029
0.1944	0.005200493
0.1946	0.004839235
0.1948	0.003452466
0.195	0.001850716
0.1952	0.0005500182
0.1954	-0.0007413253
0.1956	-0.002126345
0.1958	-0.003281326
0.196	-0.005274292
0.1962	-0.004706644
0.1964	-0.005539342
0.1966	-0.007306385
0.1968	-0.007487309
0.197	-0.007566743
0.1972	-0.006325664
0.1974	-0.007221923
0.1976	-0.009680885
0.1978	-0.007891132
0.198	-0.007586468
0.1982	-0.00923419
0.1984	-0.00857033
0.1986	-0.008249033
0.1988	-0.009898921
0.199	-0.01116387
0.1992	-0.01142105
0.1994	-0.01030259
0.1996	-0.01092053
0.1998	-0.01238099
0.2	-0.0117236
0.2002	-0.01239805
0.2004	-0.01295537
0.2006	-0.0124898
0.2008	-0.01345247
0.201	-0.01304482
0.2012	-0.01201262
0.2014	-0.01272954
0.2016	-0.01183382
0.2018	-0.01147952
0.202	-0.01214652
0.2022	-0.01097183
0.2024	-0.01094367
0.2026	-0.009491514
0.2028	-0.008059852
0.203	-0.007754252
0.2032	-0.00754463
0.2034	-0.00743946
0.2036	-0.007116263
0.2038	-0.004786329
0.204	-0.001184281
0.2042	-0.0007526035
0.2044	-0.0001071805
0.2046	-0.0003618951
0.2048	-0.0004248434
0.205	0.0008818762
0.2052	0.00199538
0.2054	0.001804703
0.2056	0.001680556
0.2058	0.002684584
0.206	0.002446564
0.2062	0.003773734
0.2064	0.0055795
0.2066	0.007468531
0.2068	0.007785791
0.207	0.008086844
0.2072	0.008289432
0.2074	0.008419782
0.2076	0.007825595
0.2078	0.008566537
0.208	0.008773644
0.2082	0.01051403
0.2084	0.01030696
0.2086	0.01053419
0.2088	0.01056753
0.209	0.01123357
0.2092	0.0124433
0.2094	0.01254551
0.2096	0.01508282
0.2098	0.01644575
0.21	0.01502473
0.2102	0.01335955
0.2104	0.01394728
0.2106	0.01537193
0.2108	0.01422637
0.211	0.01448201
0.2112	0.01598136
0.2114	0.01740502
0.2116	0.01613081
0.2118	0.01505465
0.212	0.01572173
0.2122	0.0141633
0.2124	0.01261475
0.2126	0.01191215
0.2128	0.01150553
0.213	0.01129431
0.2132	0.009982143
0.2134	0.008505087
0.2136	0.008222757
0.2138	0.0077695
0.214	0.00692718
0.2142	0.006450784
0.2144	0.005287597
0.2146	0.004323374
0.2148	0.003040849
0.215	0.001849915
0.2152	-6.131961e-5
0.2154	-0.0006100512
0.2156	-0.001995045
0.2158	-0.002803184
0.216	-0.003370705
0.2162	-0.004204555
0.2164	-0.006368827
0.2166	-0.009474392
0.2168	-0.01142465
0.217	-0.01316832
0.2172	-0.01424504
0.2174	-0.01322643
0.2176	-0.01591768
0.2178	-0.01739334
0.218	-0.01772488
0.2182	-0.0192816
0.2184	-0.01844878
0.2186	-0.0177324
0.2188	-0.01741478
0.219	-0.01718079
0.2192	-0.01601591
0.2194	-0.01647838
0.2196	-0.01787471
0.2198	-0.01701584
0.22	-0.01596347
0.2202	-0.01633262
0.2204	-0.01662252
0.2206	-0.01633761
0.2208	-0.01596043
0.221	-0.01556414
0.2212	-0.01500257
0.2214	-0.01186914
0.2216	-0.01045874
0.2218	-0.01145532
0.222	-0.01274389
0.2222	-0.01054053
0.2224	-0.007261901
0.2226	-0.007959357
0.2228	-0.008259603
0.223	-0.008163743
0.2232	-0.006884284
0.2234	-0.005853863
0.2236	-0.00710567
0.2238	-0.007008898
0.224	-0.005900591
0.2242	-0.004141299
0.2244	-0.002819344
0.2246	-0.0021359
0.2248	-0.001734718
0.225	-0.0001848518
0.2252	5.122333e-5
0.2254	0.001127876
0.2256	0.0007871672
0.2258	0.001768003
0.226	0.002406688
0.2262	0.004381583
0.2264	0.006555776
0.2266	0.006250215
0.2268	0.007046119
0.227	0.007534436
0.2272	0.00854848
0.2274	0.008603635
0.2276	0.008358431
0.2278	0.008443356
0.228	0.01153266
0.2282	0.0115163
0.2284	0.01115611
0.2286	0.01223219
0.2288	0.01411542
0.229	0.01412609
0.2292	0.01357963
0.2294	0.0123091
0.2296	0.01166912
0.2298	0.011607
0.23	0.0109764
0.2302	0.01193025
0.2304	0.01271781
0.2306	0.01312144
0.2308	0.01214099
0.231	0.01274816
0.2312	0.01319607
0.2314	0.01347833
0.2316	0.0145034
0.2318	0.01470037
0.232	0.01336534
0.2322	0.01162331
0.2324	0.01205714
0.2326	0.01400088
0.2328	0.01361944
0.233	0.01166517
0.2332	0.007257713
0.2334	0.005882926
0.2336	0.007640662
0.2338	0.006900001
0.234	0.005686948
0.2342	0.004334158
0.2344	0.002240209
0.2346	0.0009818116
0.2348	0.0009432403
0.235	0.0004220268
0.2352	-0.00149116
0.2354	-0.001019598
0.2356	-0.001282774
0.2358	-0.002323397
0.236	-0.002701507
0.2362	-0.001676167
0.2364	-0.002495398
0.2366	-0.004839188
0.2368	-0.007813244
0.237	-0.007613073
0.2372	-0.007569591
0.2374	-0.00778451
0.2376	-0.009830878
0.2378	-0.01042406
0.238	-0.01032668
0.2382	-0.009747417
0.2384	-0.0105626
0.2386	-0.01092076
0.2388	-0.01017328
0.239	-0.009696098
0.2392	-0.009933261
0.2394	-0.01200784
0.2396	-0.01281575
0.2398	-0.013518
0.24	-0.01510275
0.2402	-0.01644969
0.2404	-0.01508565
0.2406	-0.01303403
0.2408	-0.01266398
0.241	-0.01137257
0.2412	-0.0102716
0.2414	-0.01151492
0.2416	-0.01100709
0.2418	-0.009910983
0.242	-0.01066971
0.2422	-0.01031556
0.2424	-0.009373774
0.2426	-0.007165494
0.2428	-0.006385684
0.243	-0.006092841
0.2432	-0.005336291
0.2434	-0.004059113
0.2436	-0.002650564
0.2438	-0.004056424
0.244	-0.005547001
0.2442	-0.00478746
0.2444	-0.006296461
0.2446	-0.006205453
0.2448	-0.003656958
0.245	-0.001725066
0.2452	-0.001270256
0.2454	-0.0002020057
0.2456	-7.601716e-5
0.2458	0.001340845
0.246	0.002440006
0.2462	0.002726492
0.2464	0.001867295
0.2466	0.001672117
0.2468	0.003355365
0.247	0.005448444
0.2472	0.007315193
0.2474	0.007523991
0.2476	0.007687122
0.2478	0.009032611
0.248	0.007452532
0.2482	0.009453281
0.2484	0.01177591
0.2486	0.01225314
0.2488	0.01213088
0.249	0.01108274
0.2492	0.008833838
0.2494	0.009700412
0.2496	0.01193238
0.2498	0.01130121
0.25	0.01142895
0.2502	0.0106927
0.2504	0.01161278
0.2506	0.01180877
0.2508	0.01301839
0.251	0.01412626
0.2512	0.01387725
0.2514	0.01488767
0.2516	0.01415291
0.2518	0.01302675
0.252	0.01264379
0.2522	0.01186052
0.2524	0.01242941
0.2526	0.01275104
0.2528	0.01337216
0.253	0.01317614
0.2532	0.01155801
0.2534	0.01052184
0.2536	0.007971518
0.2538	0.007564683
0.254	0.008609037
0.2542	0.006900658
0.2544	0.005086216
0.2546	0.003955949
0.2548	0.00450063
0.255	0.00467892
0.2552	0.002417588
0.2554	0.0003128398
0.2556	-0.0004326524
0.2558	0.0003893564
0.256	0.0002345418
0.2562	-0.0009052888
0.2564	-0.002340776
0.2566	-0.004127409
0.2568	-0.006751649
0.257	-0.008027079
0.2572	-0.007659692
0.2574	-0.007540151
0.2576	-0.007462179
0.2578	-0.008133944
0.258	-0.01004571
0.2582	-0.01020588
0.2584	-0.01011945
0.2586	-0.01148426
0.2588	-0.009420657
0.259	-0.009098321
0.2592	-0.01097618
0.2594	-0.01187379
0.2596	-0.01244819
0.2598	-0.01273147
0.26	-0.01232625
0.2602	-0.01187469
0.2604	-0.01151907
0.2606	-0.01284342
0.2608	-0.01321013
0.261	-0.01379154
0.2612	-0.01245991
0.2614	-0.01151193
0.2616	-0.01214755
0.2618	-0.01206103
0.262	-0.01120421
0.2622	-0.01070102
0.2624	-0.01158722
0.2626	-0.01050991
0.2628	-0.01124095
0.263	-0.0122835
0.2632	-0.01321029
0.2634	-0.01165968
0.2636	-0.01014205
0.2638	-0.009761835
0.264	-0.008089654
0.2642	-0.007914938
0.2644	-0.007130275
0.2646	-0.005024953
0.2648	-0.004162215
0.265	-0.002805734
0.2652	-0.003299553
0.2654	-0.002147217
0.2656	-0.002146314
0.2658	-0.0006992362
0.266	0.00138515
0.2662	0.002247073
0.2664	0.004260137
0.2666	0.004774963
0.2668	0.003909529
0.267	0.005507807
0.2672	0.006147665
0.2674	0.007069314
0.2676	0.007737458
0.2678	0.008620205
0.268	0.008984937
0.2682	0.009637419
0.2684	0.01290312
0.2686	0.01327091
0.2688	0.01269942
0.269	0.01368665
0.2692	0.01455728
0.2694	0.01466136
0.2696	0.01330017
0.2698	0.01299689
0.27	0.0138204
0.2702	0.01527026
0.2704	0.01558672
0.2706	0.01454808
0.2708	0.01463269
0.271	0.0147706
0.2712	0.01491791
0.2714	0.01478197
0.2716	0.01365289
0.2718	0.01128791
0.272	0.009369209
0.2722	0.008209204
0.2724	0.008726244
0.2726	0.008880252
0.2728	0.008410944
0.273	0.008798824
0.2732	0.007993856
0.2734	0.007594713
0.2736	0.006681605
0.2738	0.005699021
0.274	0.004198725
0.2742	0.004026486
0.2744	0.003427742
0.2746	0.003003292
0.2748	0.0009880958
0.275	-0.000209515
0.2752	-0.0003089221
0.2754	-0.0007977901
0.2756	-0.001018399
0.2758	-0.002266256
0.276	-0.004954606
0.2762	-0.004893958
0.2764	-0.003744469
0.2766	-0.004132805
0.2768	-0.004839462
0.277	-0.008121137
0.2772	-0.007855704
0.2774	-0.006396919
0.2776	-0.005885995
0.2778	-0.007758096
0.278	-0.008249359
0.2782	-0.007291583
0.2784	-0.008607285
0.2786	-0.008205108
0.2788	-0.009131216
0.279	-0.00987617
0.2792	-0.01013632
0.2794	-0.009920459
0.2796	-0.01087373
0.2798	-0.01292812
0.28	-0.01176593
0.2802	-0.01106781
0.2804	-0.01162404
0.2806	-0.01357464
0.2808	-0.01418493
0.281	-0.01278505
0.2812	-0.01071784
0.2814	-0.01078658
0.2816	-0.01168288
0.2818	-0.01052561
0.282	-0.009259008
0.2822	-0.008771506
0.2824	-0.007026657
0.2826	-0.007009434
0.2828	-0.007849247
0.283	-0.007495043
0.2832	-0.006825218
0.2834	-0.00639831
0.2836	-0.005336372
0.2838	-0.005040847
0.284	-0.005887467
0.2842	-0.005772608
0.2844	-0.003732582
0.2846	-0.003894494
0.2848	-0.004125726
0.285	-0.002141531
0.2852	-0.001323369
0.2854	0.0003300876
0.2856	0.001629224
0.2858	0.0005729279
0.286	0.001442049
0.2862	0.002795738
0.2864	0.003362457
0.2866	0.004992271
0.2868	0.006057173
0.287	0.006147095
0.2872	0.007126711
0.2874	0.008438654
0.2876	0.009509691
0.2878	0.0109687
0.288	0.01126947
0.2882	0.01115375
0.2884	0.01165297
0.2886	0.01182421
0.2888	0.01235802
0.289	0.01233103
0.2892	0.01380342
0.2894	0.01505812
0.2896	0.01570153
0.2898	0.01626716
0.29	0.01452848
0.2902	0.01297405
0.2904	0.01329085
0.2906	0.01435027
0.2908	0.01227608
0.291	0.01241209
0.2912	0.01237869
0.2914	0.01069157
0.2916	0.009359397
0.2918	0.008746021
0.292	0.009320657
0.2922	0.009281785
0.2924	0.01015648
0.2926	0.01024738
0.2928	0.01002498
0.293	0.009121084
0.2932	0.007831108
0.2934	0.006168925
0.2936	0.004411454
0.2938	0.003226357
0.294	0.00418579
0.2942	0.004510573
0.2944	0.004006084
0.2946	0.003202129
0.2948	0.003546515
0.295	0.002504959
0.2952	0.001151158
0.2954	0.001567299
0.2956	0.0001657717
0.2958	-0.0006021917
0.296	-0.001661357
0.2962	-0.002191384
0.2964	-0.003686752
0.2966	-0.006054983
0.2968	-0.007013934
0.297	-0.006917579
0.2972	-0.008333567
0.2974	-0.009221869
0.2976	-0.009489682
0.2978	-0.009161288
0.298	-0.009772238
0.2982	-0.01104973
0.2984	-0.01151618
0.2986	-0.01323236
0.2988	-0.01511122
0.299	-0.0135234
0.2992	-0.01406594
0.2994	-0.01336928
0.2996	-0.0135811
0.2998	-0.01350298
0.3	-0.01262727
0.3002	-0.01167833
0.3004	-0.01023923
0.3006	-0.009928509
0.3008	-0.009371978
0.301	-0.009411227
0.3012	-0.01054233
0.3014	-0.01167299
0.3016	-0.01143004
0.3018	-0.0109048
0.302	-0.01064838
0.3022	-0.009030554
0.3024	-0.007910619
0.3026	-0.009537105
0.3028	-0.01075515
0.303	-0.0114755
0.3032	-0.01195275
0.3034	-0.0103572
0.3036	-0.006156777
0.3038	-0.005723508
0.304	-0.004052601
0.3042	-0.003780662
0.3044	-0.003794674
0.3046	-0.002225757
0.3048	-0.002492888
0.305	-0.001261975
0.3052	-0.000269363
0.3054	0.001707292
0.3056	0.002007617
0.3058	0.0007717512
0.306	0.002562369
0.3062	0.003958222
0.3064	0.004378255
0.3066	0.004469152
0.3068	0.004950807
0.307	0.005294832
0.3072	0.005780151
0.3074	0.007185841
0.3076	0.006844881
0.3078	0.005636394
0.308	0.007269912
0.3082	0.009364571
0.3084	0.01066558
0.3086	0.01098118
0.3088	0.0105922
0.309	0.01158093
0.3092	0.01061484
0.3094	0.01021487
0.3096	0.009713739
0.3098	0.009680834
0.31	0.009363032
0.3102	0.008950261
0.3104	0.009710408
0.3106	0.009520651
0.3108	0.01057633
0.311	0.0126241
0.3112	0.01187436
0.3114	0.01172119
0.3116	0.01232011
0.3118	0.01189077
0.312	0.0103553
0.3122	0.01085657
0.3124	0.01038579
0.3126	0.01135655
0.3128	0.01236601
0.313	0.01106328
0.3132	0.009766582
0.3134	0.0103228
0.3136	0.01105072
0.3138	0.009504349
0.314	0.006766214
0.3142	0.005357024
0.3144	0.003497561
0.3146	0.002334603
0.3148	0.002959923
0.315	0.001256677
0.3152	-0.001941095
0.3154	-0.002774778
0.3156	-0.002278351
0.3158	-0.002395079
0.316	-0.003957556
0.3162	-0.00391919
0.3164	-0.002930472
0.3166	-0.003311681
0.3168	-0.004988411
0.317	-0.00638586
0.3172	-0.007141786
0.3174	-0.00916091
0.3176	-0.009916556
0.3178	-0.009006199
0.318	-0.007860575
0.3182	-0.009455054
0.3184	-0.009605724
0.3186	-0.01029579
0.3188	-0.009508054
0.319	-0.01005223
0.3192	-0.01046988
0.3194	-0.01010442
0.3196	-0.0115889
0.3198	-0.01175536
0.32	-0.01131777
0.3202	-0.01036872
0.3204	-0.0101728
0.3206	-0.01103903
0.3208	-0.01199863
0.321	-0.01247947
0.3212	-0.01216477
0.3214	-0.01170031
0.3216	-0.01129007
0.3218	-0.01152883
0.322	-0.01015204
0.3222	-0.009497139
0.3224	-0.008528597
0.3226	-0.009088679
0.3228	-0.009323516
0.323	-0.008440326
0.3232	-0.008612143
0.3234	-0.007270625
0.3236	-0.006211409
0.3238	-0.005912493
0.324	-0.005457282
0.3242	-0.005026694
0.3244	-0.003236071
0.3246	-0.003577485
0.3248	-0.006000955
0.325	-0.004782184
0.3252	-0.004611149
0.3254	-0.00461542
0.3256	-0.003367844
0.3258	-0.002161104
0.326	0.0007005192
0.3262	0.003111891
0.3264	0.005019614
0.3266	0.005447166
0.3268	0.005420628
0.327	0.006028123
0.3272	0.006746601
0.3274	0.007579689
0.3276	0.0103457
0.3278	0.01180589
0.328	0.01167729
0.3282	0.01288143
0.3284	0.01322177
0.3286	0.01339935
0.3288	0.0133705
0.329	0.01296357
0.3292	0.01277381
0.3294	0.01319961
0.3296	0.01288284
0.3298	0.01318099
0.33	0.01150677
0.3302	0.01246349
0.3304	0.01162923
0.3306	0.01048167
0.3308	0.009936088
0.331	0.009419748
0.3312	0.009467153
0.3314	0.008779351
0.3316	0.007753388
0.3318	0.007757585
0.332	0.008490561
0.3322	0.008744938
0.3324	0.008880522
0.3326	0.009336839
0.3328	0.008772485
0.333	0.007884
0.3332	0.006472714
0.3334	0.005612558
0.3336	0.003476998
0.3338	0.002357136
0.334	0.002607572
0.3342	0.003725593
0.3344	0.003824131
0.3346	0.001917465
0.3348	0.003260707
0.335	0.004007127
0.3352	0.002002256
0.3354	0.0006593053
0.3356	0.0004744058
0.3358	0.0005073551
0.336	0.0003951609
0.3362	-1.198494e-5
0.3364	-0.002138069
0.3366	-0.004223585
0.3368	-0.005260982
0.337	-0.004353187
0.3372	-0.006128139
0.3374	-0.006749108
0.3376	-0.007470904
0.3378	-0.008131064
0.338	-0.007352424
0.3382	-0.007228807
0.3384	-0.008270502
0.3386	-0.009825932
0.3388	-0.009299758
0.339	-0.00992536
0.3392	-0.0116096
0.3394	-0.0125586
0.3396	-0.01337297
0.3398	-0.01318381
0.34	-0.01342016
0.3402	-0.01228493
0.3404	-0.0123452
0.3406	-0.01374322
0.3408	-0.0129036
0.341	-0.01196236
0.3412	-0.01082416
0.3414	-0.01036759
0.3416	-0.01090277
0.3418	-0.01039894
0.342	-0.0102675
0.3422	-0.01112789
0.3424	-0.01075421
0.3426	-0.01044603
0.3428	-0.009685324
0.343	-0.00796978
0.3432	-0.005405319
0.3434	-0.004401597
0.3436	-0.002739614
0.3438	-0.003950751
0.344	-0.004044344
0.3442	-0.003891268
0.3444	-0.003276041
0.3446	-0.003074765
0.3448	-0.002276083
0.345	-0.002228026
0.3452	-0.002257385
0.3454	0.0004128777
0.3456	0.0009247492
0.3458	0.001237608
0.346	0.00169174
0.3462	0.00348584
0.3464	0.004370776
0.3466	0.004032026
0.3468	0.005358964
0.347	0.005530018
0.3472	0.007268879
0.3474	0.008684553
0.3476	0.00915743
0.3478	0.009341673
0.348	0.009956539
0.3482	0.01019896
0.3484	0.01061796
0.3486	0.01146568
0.3488	0.01085156
0.349	0.01042511
0.3492	0.01056408
0.3494	0.009609867
0.3496	0.01002459
0.3498	0.01208732
0.35	0.01186941
0.3502	0.01187943
0.3504	0.01085249
0.3506	0.009888733
0.3508	0.01086893
0.351	0.01322452
0.3512	0.01437282
0.3514	0.01491957
0.3516	0.01287932
0.3518	0.01121306
0.352	0.01163751
0.3522	0.011825
0.3524	0.01174086
0.3526	0.01030412
0.3528	0.01067535
0.353	0.01154184
0.3532	0.01001667
0.3534	0.009155368
0.3536	0.006758353
0.3538	0.005246359
0.354	0.004783082
0.3542	0.003728532
0.3544	0.003968818
0.3546	0.005082707
0.3548	0.00489961
0.355	0.003030308
0.3552	0.0009796057
0.3554	0.001588192
0.3556	0.0002769123
0.3558	-0.001336852
0.356	-0.002337952
0.3562	-0.003031221
0.3564	-0.002988316
0.3566	-0.00247028
0.3568	-0.003320431
0.357	-0.0043102
0.3572	-0.007070261
0.3574	-0.009061182
0.3576	-0.009208015
0.3578	-0.008993166
0.358	-0.01044742
0.3582	-0.01191859
0.3584	-0.01284909
0.3586	-0.01261611
0.3588	-0.01379249
0.359	-0.01292001
0.3592	-0.01284435
0.3594	-0.01246035
0.3596	-0.01343771
0.3598	-0.01305768
0.36	-0.01173815
0.3602	-0.01105933
0.3604	-0.01121096
0.3606	-0.01045767
0.3608	-0.01032957
0.361	-0.01025134
0.3612	-0.01032499
0.3614	-0.01019706
0.3616	-0.008324865
0.3618	-0.008306435
0.362	-0.008818202
0.3622	-0.009460703
0.3624	-0.008250323
0.3626	-0.008080719
0.3628	-0.007502919
0.363	-0.006829978
0.3632	-0.006111692
0.3634	-0.004687119
0.3636	-0.003486439
0.3638	-0.002874893
0.364	-0.003990526
0.3642	-0.003470248
0.3644	-0.002625066
0.3646	-0.00321675
0.3648	-0.004330433
0.365	-0.005391199
0.3652	-0.005769435
0.3654	-0.005769165
0.3656	-0.006340749
0.3658	-0.005120402
0.366	-0.003111153
0.3662	-0.0004624987
0.3664	0.000486148
0.3666	0.0009182425
0.3668	0.001045316
0.367	0.001539072
0.3672	0.0004374214
0.3674	-0.0002550503
0.3676	-0.0002687563
0.3678	0.0006311613
0.368	0.0006126197
0.3682	0.001853938
0.3684	0.004681323
0.3686	0.007379608
0.3688	0.008341995
0.369	0.00953363
0.3692	0.009619214
0.3694	0.0102742
0.3696	0.01126526
0.3698	0.01217883
0.37	0.01303874
0.3702	0.01260742
0.3704	0.01211794
0.3706	0.01083651
0.3708	0.01114278
0.371	0.01035715
0.3712	0.009835396
0.3714	0.01091846
0.3716	0.0117947
0.3718	0.01283082
0.372	0.01041814
0.3722	0.009717221
0.3724	0.01068475
0.3726	0.009486832
0.3728	0.008305207
0.373	0.007496797
0.3732	0.007628446
0.3734	0.007857816
0.3736	0.007920317
0.3738	0.008399761
0.374	0.007039106
0.3742	0.006277568
0.3744	0.00571584
0.3746	0.005247067
0.3748	0.003165286
0.375	0.003080904
0.3752	0.003274517
0.3754	0.002091965
0.3756	0.001949884
0.3758	0.001765229
0.376	0.001347052
0.3762	0.0008110885
0.3764	0.0007695432
0.3766	0.0001254885
0.3768	-0.001527968
0.377	-0.003264039
0.3772	-0.003961204
0.3774	-0.002908985
0.3776	-0.004265048
0.3778	-0.004172527
0.378	-0.003889399
0.3782	-0.004156898
0.3784	-0.004142131
0.3786	-0.005329972
0.3788	-0.005854913
0.379	-0.005624922
0.3792	-0.005597128
0.3794	-0.006793643
0.3796	-0.008041591
0.3798	-0.007837293
0.38	-0.008232747
0.3802	-0.00927389
0.3804	-0.01012186
0.3806	-0.01106237
0.3808	-0.01233527
0.381	-0.01253703
0.3812	-0.0117662
0.3814	-0.01130003
0.3816	-0.01068036
0.3818	-0.01057708
0.382	-0.009510868
0.3822	-0.00905917
0.3824	-0.009664387
0.3826	-0.009525058
0.3828	-0.009716445
0.383	-0.008563874
0.3832	-0.007672546
0.3834	-0.006761973
0.3836	-0.00674746
0.3838	-0.008073302
0.384	-0.008589513
0.3842	-0.008863387
0.3844	-0.006957382
0.3846	-0.005774643
0.3848	-0.004176952
0.385	-0.001637295
0.3852	-0.0007690563
0.3854	-0.0008761603
0.3856	-0.000867339
0.3858	-0.0003462471
0.386	0.001259112
0.3862	0.001812438
0.3864	0.00317326
0.3866	0.003433716
0.3868	0.004497809
0.387	0.005584031
0.3872	0.005249219
0.3874	0.005085399
0.3876	0.004242777
0.3878	0.004356823
0.388	0.006899009
0.3882	0.007526567
0.3884	0.007443415
0.3886	0.008437174
0.3888	0.008982422
0.389	0.0103123
0.3892	0.01057284
0.3894	0.009242721
0.3896	0.008449867
0.3898	0.007521028
0.39	0.00703753
0.3902	0.006664956
0.3904	0.007693591
0.3906	0.008451095
0.3908	0.007883948
0.391	0.007499023
0.3912	0.008585278
0.3914	0.009839896
0.3916	0.01021776
0.3918	0.01078436
0.392	0.009865078
0.3922	0.009463976
0.3924	0.008537703
0.3926	0.007822159
0.3928	0.008772883
0.393	0.00785519
0.3932	0.006241448
0.3934	0.007217989
0.3936	0.006374379
0.3938	0.006247004
0.394	0.006814772
0.3942	0.007637048
0.3944	0.006879579
0.3946	0.006306389
0.3948	0.006350077
0.395	0.005204817
0.3952	0.004616698
0.3954	0.002313094
0.3956	0.001610058
0.3958	0.001673621
0.396	0.001275366
0.3962	-0.000968417
0.3964	-0.003067078
0.3966	-0.004563312
0.3968	-0.004720653
0.397	-0.005722419
0.3972	-0.007105459
0.3974	-0.009021469
0.3976	-0.008318773
0.3978	-0.008371143
0.398	-0.008770469
0.3982	-0.01007515
0.3984	-0.0110737
0.3986	-0.01015983
0.3988	-0.0104137
0.399	-0.01116304
0.3992	-0.0102681
0.3994	-0.009437318
0.3996	-0.00929644
0.3998	-0.0104331
0.4	-0.009513929
0.4002	-0.008809425
0.4004	-0.01019964
0.4006	-0.009656805
0.4008	-0.009815615
0.401	-0.01093394
0.4012	-0.01209852
0.4014	-0.01274135
0.4016	-0.01279247
0.4018	-0.01148415
0.402	-0.0118714
0.4022	-0.01152482
0.4024	-0.01032156
0.4026	-0.009907915
0.4028	-0.009006533
0.403	-0.007287708
0.4032	-0.006311677
0.4034	-0.005383634
0.4036	-0.005523751
0.4038	-0.005683527
0.404	-0.004343911
0.4042	-0.003659936
0.4044	-0.003283482
0.4046	-0.003444747
0.4048	-0.003343676
0.405	-0.003174162
0.4052	-0.001285756
0.4054	-0.001390261
0.4056	0.0005662383
0.4058	0.001865104
0.406	0.001934218
0.4062	0.003824951
0.4064	0.005154317
0.4066	0.005085977
0.4068	0.005521767
0.407	0.006450254
0.4072	0.007277141
0.4074	0.008287328
0.4076	0.009644801
0.4078	0.009243534
0.408	0.008466182
0.4082	0.00861401
0.4084	0.009760392
0.4086	0.0114218
0.4088	0.01193287
0.409	0.01270278
0.4092	0.01290283
0.4094	0.01271303
0.4096	0.01240724
0.4098	0.01207334
0.41	0.0116016
0.4102	0.0120554
0.4104	0.01333544
0.4106	0.01376466
0.4108	0.01380639
0.411	0.01272837
0.4112	0.01367545
0.4114	0.01552068
0.4116	0.01413952
0.4118	0.01349412
0.412	0.01390073
0.4122	0.01237359
0.4124	0.01289939
0.4126	0.01137082
0.4128	0.01007042
0.413	0.01013481
0.4132	0.009638487
0.4134	0.007791571
0.4136	0.005805612
0.4138	0.004905705
0.414	0.005041186
0.4142	0.004994659
0.4144	0.004927178
0.4146	0.005292156
0.4148	0.003249719
0.415	0.001702536
0.4152	0.0005894835
0.4154	5.307713e-5
0.4156	0.001243811
0.4158	-0.000431339
0.416	-0.001001039
0.4162	-0.001319976
0.4164	-0.003390544
0.4166	-0.005375939
0.4168	-0.005057982
0.417	-0.004196882
0.4172	-0.005605821
0.4174	-0.004600454
0.4176	-0.004350639
0.4178	-0.0061134
0.418	-0.006724579
0.4182	-0.005789191
0.4184	-0.006871711
0.4186	-0.008645178
0.4188	-0.008183145
0.419	-0.008087597
0.4192	-0.008415068
0.4194	-0.009876683
0.4196	-0.01097354
0.4198	-0.01155444
0.42	-0.01210219
0.4202	-0.01259408
0.4204	-0.01251877
0.4206	-0.01305295
0.4208	-0.01404573
0.421	-0.01481194
0.4212	-0.01465079
0.4214	-0.014127
0.4216	-0.01424833
0.4218	-0.01539645
0.422	-0.01567439
0.4222	-0.01448923
0.4224	-0.01340734
0.4226	-0.01274432
0.4228	-0.01088367
0.423	-0.008827149
0.4232	-0.007725331
0.4234	-0.005927315
0.4236	-0.004815107
0.4238	-0.005792328
0.424	-0.00441275
0.4242	-0.002685075
0.4244	-0.002367986
0.4246	-0.002788839
0.4248	-0.002741513
0.425	-0.003248235
0.4252	-0.002366093
0.4254	-0.000921793
0.4256	-0.0008547524
0.4258	-0.000183807
0.426	4.863179e-5
0.4262	8.175153e-5
0.4264	0.001612671
0.4266	0.001974848
0.4268	0.001525659
0.427	0.002144215
0.4272	0.004008415
0.4274	0.003927015
0.4276	0.006017889
0.4278	0.005431005
0.428	0.006481687
0.4282	0.007719096
0.4284	0.007444655
0.4286	0.007552953
0.4288	0.008275552
0.429	0.009909239
0.4292	0.01075741
0.4294	0.01256575
0.4296	0.01125368
0.4298	0.01056358
0.43	0.0103593
0.4302	0.0101623
0.4304	0.01164032
0.4306	0.01121395
0.4308	0.01155347
0.431	0.01224549
0.4312	0.01158797
0.4314	0.01043862
0.4316	0.009311969
0.4318	0.009277766
0.432	0.008301717
0.4322	0.008221508
0.4324	0.008590745
0.4326	0.007863507
0.4328	0.006995139
0.433	0.007099537
0.4332	0.007284997
0.4334	0.00660858
0.4336	0.005062545
0.4338	0.004846978
0.434	0.005909478
0.4342	0.004621984
0.4344	0.005470766
0.4346	0.005859481
0.4348	0.003059819
0.435	0.001509316
0.4352	0.001590462
0.4354	0.000826179
0.4356	-0.001154752
0.4358	-0.001040952
0.436	-0.001854802
0.4362	-0.002053521
0.4364	-0.002831754
0.4366	-0.004315048
0.4368	-0.004339498
0.437	-0.00638492
0.4372	-0.006680423
0.4374	-0.005719586
0.4376	-0.006384494
0.4378	-0.008467574
0.438	-0.008832915
0.4382	-0.008291088
0.4384	-0.008117215
0.4386	-0.008455956
0.4388	-0.009906081
0.439	-0.01056858
0.4392	-0.01042915
0.4394	-0.00885186
0.4396	-0.008982742
0.4398	-0.0102589
0.44	-0.01152208
0.4402	-0.01255976
0.4404	-0.01375139
0.4406	-0.01286917
0.4408	-0.0119715
0.441	-0.0123274
0.4412	-0.01242889
0.4414	-0.01212666
0.4416	-0.01367496
0.4418	-0.01484447
0.442	-0.01499955
0.4422	-0.014877
0.4424	-0.01471634
0.4426	-0.01488798
0.4428	-0.01488605
0.443	-0.01205241
0.4432	-0.01028879
0.4434	-0.008758242
0.4436	-0.007950176
0.4438	-0.007428135
0.444	-0.006421068
0.4442	-0.006130537
0.4444	-0.003413929
0.4446	-0.0021678
0.4448	-0.00320771
0.445	-0.001716559
0.4452	-0.0007428083
0.4454	-0.001003649
0.4456	0.000830535
0.4458	0.001718713
0.446	0.0005767734
0.4462	-0.000219491
0.4464	0.0001944231
0.4466	0.001931091
0.4468	0.001858094
0.447	0.003835995
0.4472	0.005690169
0.4474	0.003960169
0.4476	0.004209484
0.4478	0.004406132
0.448	0.004302814
0.4482	0.004709454
0.4484	0.00525369
0.4486	0.007475571
0.4488	0.008499575
0.449	0.009254594
0.4492	0.01005364
0.4494	0.01077832
0.4496	0.01182091
0.4498	0.0113133
0.45	0.01127457
0.4502	0.01138254
0.4504	0.01199907
0.4506	0.01287067
0.4508	0.01306806
0.451	0.01315841
0.4512	0.01349561
0.4514	0.01504273
0.4516	0.01459456
0.4518	0.01291832
0.452	0.01156554
0.4522	0.01225646
0.4524	0.01204426
0.4526	0.01100096
0.4528	0.01105424
0.453	0.008947527
0.4532	0.007955771
0.4534	0.008364772
0.4536	0.006914596
0.4538	0.005891906
0.454	0.007567218
0.4542	0.006843906
0.4544	0.007114526
0.4546	0.007093065
0.4548	0.004793359
0.455	0.005054304
0.4552	0.003809253
0.4554	0.0007391874
0.4556	-0.0002084161
0.4558	0.001155168
0.456	0.001759113
0.4562	-2.009346e-5
0.4564	-0.002063226
0.4566	-0.002379893
0.4568	-0.003546552
0.457	-0.005652289
0.4572	-0.00527917
0.4574	-0.005335244
0.4576	-0.005565326
0.4578	-0.005703072
0.458	-0.005676822
0.4582	-0.005254471
0.4584	-0.005891472
0.4586	-0.007292584
0.4588	-0.008774954
0.459	-0.009030906
0.4592	-0.009342089
0.4594	-0.009720287
0.4596	-0.009692347
0.4598	-0.00985016
0.46	-0.01051879
0.4602	-0.01023375
0.4604	-0.01042903
0.4606	-0.01163064
0.4608	-0.01227424
0.461	-0.0121943
0.4612	-0.01206104
0.4614	-0.0133923
0.4616	-0.01414056
0.4618	-0.01423555
0.462	-0.01390134
0.4622	-0.01287463
0.4624	-0.01151971
0.4626	-0.008796691
0.4628	-0.007680521
0.463	-0.008677065
0.4632	-0.005981726
0.4634	-0.005301225
0.4636	-0.005576112
0.4638	-0.006052555
0.464	-0.006215296
0.4642	-0.004667167
0.4644	-0.004540993
0.4646	-0.003614901
0.4648	-0.003990045
0.465	-0.003171117
0.4652	-0.00315493
0.4654	-0.002477649
0.4656	0.0003853952
0.4658	0.001337026
0.466	0.002256933
0.4662	0.003001181
0.4664	0.00613322
0.4666	0.006976001
0.4668	0.008317404
0.467	0.00844817
0.4672	0.009154073
0.4674	0.009641788
0.4676	0.01030596
0.4678	0.01076896
0.468	0.01073491
0.4682	0.01155278
0.4684	0.01054364
0.4686	0.01092697
0.4688	0.01220947
0.469	0.0114339
0.4692	0.01155254
0.4694	0.0118676
0.4696	0.01329318
0.4698	0.01331084
0.47	0.01391854
0.4702	0.01482874
0.4704	0.01436321
0.4706	0.01385828
0.4708	0.01147041
0.471	0.01210979
0.4712	0.01351972
0.4714	0.01405972
0.4716	0.0136779
0.4718	0.01340032
0.472	0.0116492
0.4722	0.009093627
0.4724	0.008759158
0.4726	0.008628315
0.4728	0.008658914
0.473	0.005878214
0.4732	0.004190804
0.4734	0.00499345
0.4736	0.005590144
0.4738	0.003678891
0.474	0.002433285
0.4742	0.002444209
0.4744	0.003651231
0.4746	0.002728299
0.4748	0.001204846
0.475	-3.20627e-5
0.4752	-0.001986537
0.4754	-0.002224752
0.4756	-0.002048944
0.4758	-0.003465381
0.476	-0.002567363
0.4762	-0.001956318
0.4764	-0.002143529
0.4766	-0.002822201
0.4768	-0.004444557
0.477	-0.005713071
0.4772	-0.006157689
0.4774	-0.005502847
0.4776	-0.007040578
0.4778	-0.0100794
0.478	-0.0107091
0.4782	-0.008943412
0.4784	-0.007973896
0.4786	-0.009139148
0.4788	-0.009585716
0.479	-0.008140759
0.4792	-0.007681364
0.4794	-0.008843875
0.4796	-0.01025687
0.4798	-0.011221
0.48	-0.01231422
0.4802	-0.01178058
0.4804	-0.01228861
0.4806	-0.01206079
0.4808	-0.0119904
0.481	-0.01180554
0.4812	-0.01181698
0.4814	-0.01108372
0.4816	-0.01176827
0.4818	-0.01172732
0.482	-0.01034439
0.4822	-0.01126054
0.4824	-0.01292486
0.4826	-0.01222517
0.4828	-0.01209815
0.483	-0.01107878
0.4832	-0.01033168
0.4834	-0.009291809
0.4836	-0.008393303
0.4838	-0.008036587
0.484	-0.008258957
0.4842	-0.007766597
0.4844	-0.006155642
0.4846	-0.00650209
0.4848	-0.006752844
0.485	-0.004256265
0.4852	-0.002992945
0.4854	-0.001653034
0.4856	-0.0009736632
0.4858	-0.0008555868
0.486	-0.0005946166
0.4862	0.0005353562
0.4864	0.002271951
0.4866	0.004823857
0.4868	0.004602395
0.487	0.004313524
0.4872	0.006375251
0.4874	0.006222896
0.4876	0.006790555
0.4878	0.008915363
0.488	0.009651695
0.4882	0.01122773
0.4884	0.01222315
0.4886	0.01184479
0.4888	0.01219145
0.489	0.01216627
0.4892	0.01258071
0.4894	0.01237024
0.4896	0.01135262
0.4898	0.0121729
0.49	0.01208706
0.4902	0.01406161
0.4904	0.01356897
0.4906	0.01150216
0.4908	0.01109863
0.491	0.01185834
0.4912	0.01227937
0.4914	0.01409584
0.4916	0.01480194
0.4918	0.01464583
0.492	0.0138368
0.4922	0.01426284
0.4924	0.01417663
0.4926	0.01304541
0.4928	0.01217044
0.493	0.011362
0.4932	0.01013785
0.4934	0.008974775
0.4936	0.009132233
0.4938	0.008004712
0.494	0.0069014
0.4942	0.006277052
0.4944	0.005275579
0.4946	0.004169801
0.4948	0.004252491
0.495	0.003375977
0.4952	0.002401626
0.4954	0.0006669675
0.4956	-0.001791043
0.4958	-0.002412552
0.496	-0.00163903
0.4962	-0.001146756
0.4964	-0.003412453
0.4966	-0.004154298
0.4968	-0.004396024
0.497	-0.005543331
0.4972	-0.006170761
0.4974	-0.006353736
0.4976	-0.006564178
0.4978	-0.007859654
0.498	-0.009602639
0.4982	-0.008941263
0.4984	-0.0104158
0.4986	-0.01170612
0.4988	-0.01242411
0.499	-0.01256429
0.4992	-0.01197098
0.4994	-0.01194186
0.4996	-0.01141692
0.4998	-0.01137047
0.5	-0.01113874
0.5002	-0.01208171
0.5004	-0.01258932
0.5006	-0.01111978
0.5008	-0.0105492
0.501	-0.01131041
0.5012	-0.01269011
0.5014	-0.01324243
0.5016	-0.01382543
0.5018	-0.01281397
0.502	-0.01403019
0.5022	-0.01397262
0.5024	-0.01398434
0.5026	-0.01412811
0.5028	-0.0130587
0.503	-0.01330344
0.5032	-0.0143651
0.5034	-0.01303829
0.5036	-0.01274161
0.5038	-0.01297284
0.504	-0.01188528
0.5042	-0.009121807
0.5044	-0.007237161
0.5046	-0.005316846
0.5048	-0.004260744
0.505	-0.005141467
0.5052	-0.002653245
0.5054	-0.001361164
0.5056	-0.002383247
0.5058	-0.001565338
0.506	-0.0003386197
0.5062	0.0004167707
0.5064	0.0008499739
0.5066	0.000745673
0.5068	0.001820213
0.507	0.002616465
0.5072	0.003140871
0.5074	0.003065987
0.5076	0.003203938
0.5078	0.005443739
0.508	0.006428221
0.5082	0.006999553
0.5084	0.007643336
0.5086	0.007167723
0.5088	0.006889556
0.509	0.008615953
0.5092	0.01116887
0.5094	0.01158081
0.5096	0.01262516
0.5098	0.01208639
0.51	0.01212634
0.5102	0.01212733
0.5104	0.01279625
0.5106	0.0129932
0.5108	0.0139153
0.511	0.01373468
0.5112	0.01267172
0.5114	0.01263873
0.5116	0.01048205
0.5118	0.009919072
0.512	0.01025377
0.5122	0.009454526
0.5124	0.007736441
0.5126	0.007771155
0.5128	0.007894842
0.513	0.00859146
0.5132	0.009655852
0.5134	0.008342579
0.5136	0.008256217
0.5138	0.006191097
0.514	0.004064009
0.5142	0.003759247
0.5144	0.003920837
0.5146	0.00467334
0.5148	0.002511523
0.515	0.002369546
0.5152	0.002564054
0.5154	0.002161773
0.5156	0.0002749426
0.5158	-0.001647449
0.516	-0.001164061
0.5162	-0.001550196
0.5164	-0.001764235
0.5166	-0.003561159
0.5168	-0.004173087
0.517	-0.002390581
0.5172	-0.001299259
0.5174	-0.00139064
0.5176	-0.004243161
0.5178	-0.005917815
0.518	-0.00646847
0.5182	-0.005622822
0.5184	-0.004715579
0.5186	-0.005905906
0.5188	-0.007025655
0.519	-0.008098018
0.5192	-0.007753573
0.5194	-0.007401913
0.5196	-0.007569012
0.5198	-0.008555355
0.52	-0.009380544
0.5202	-0.01017859
0.5204	-0.0112758
0.5206	-0.0122313
0.5208	-0.01176128
0.521	-0.01079925
0.5212	-0.01022127
0.5214	-0.01142109
0.5216	-0.01294986
0.5218	-0.01326517
0.522	-0.01218564
0.5222	-0.01199647
0.5224	-0.01256017
0.5226	-0.01161862
0.5228	-0.008600766
0.523	-0.008413503
0.5232	-0.008821516
0.5234	-0.008630818
0.5236	-0.008308988
0.5238	-0.008358825
0.524	-0.007212829
0.5242	-0.006022271
0.5244	-0.00527585
0.5246	-0.006170394
0.5248	-0.005468761
0.525	-0.003364247
0.5252	-0.0007536861
0.5254	0.0002192519
0.5256	0.001369439
0.5258	0.004049734
0.526	0.003620038
0.5262	0.002711145
0.5264	0.00356843
0.5266	0.005189112
0.5268	0.006521282
0.527	0.007680828
0.5272	0.007682148
0.5274	0.007507173
0.5276	0.008764319
0.5278	0.01108585
0.528	0.01232731
0.5282	0.01153245
0.5284	0.01158126
0.5286	0.01250427
0.5288	0.01374981
0.529	0.01489939
0.5292	0.0150824
0.5294	0.01491534
0.5296	0.01381467
0.5298	0.01231204
0.53	0.0128346
0.5302	0.01378625
0.5304	0.01368529
0.5306	0.0144832
0.5308	0.01410699
0.531	0.01351245
0.5312	0.01305898
0.5314	0.01361094
0.5316	0.01263301
0.5318	0.01215405
0.532	0.01108432
0.5322	0.01008835
0.5324	0.01038895
0.5326	0.01123743
0.5328	0.01022611
0.533	0.008026686
0.5332	0.008611783
0.5334	0.008207982
0.5336	0.00824132
0.5338	0.007372333
0.534	0.006190308
0.5342	0.006306122
0.5344	0.006502736
0.5346	0.007425649
0.5348	0.006745188
0.535	0.003881902
0.5352	0.0008223547
0.5354	0.0003471143
0.5356	-0.0007452505
0.5358	-0.002698605
0.536	-0.002665775
0.5362	-0.003992372
0.5364	-0.004539519
0.5366	-0.005156834
0.5368	-0.006671407
0.537	-0.006418929
0.5372	-0.006737797
0.5374	-0.00764292
0.5376	-0.008263179
0.5378	-0.009796147
0.538	-0.01001493
0.5382	-0.01100092
0.5384	-0.01307143
0.5386	-0.01212348
0.5388	-0.01155871
0.539	-0.01106988
0.5392	-0.01286119
0.5394	-0.01222598
0.5396	-0.01243981
0.5398	-0.01361148
0.54	-0.01247511
0.5402	-0.01294893
0.5404	-0.01362204
0.5406	-0.01370319
0.5408	-0.01417315
0.541	-0.01251229
0.5412	-0.01148141
0.5414	-0.01241885
0.5416	-0.01319462
0.5418	-0.01359795
0.542	-0.01304729
0.5422	-0.01153406
0.5424	-0.01243052
0.5426	-0.01163766
0.5428	-0.008210936
0.543	-0.007425245
0.5432	-0.008764756
0.5434	-0.009572083
0.5436	-0.008687715
0.5438	-0.008564325
0.544	-0.007095642
0.5442	-0.004854237
0.5444	-0.004155815
0.5446	-0.003270041
0.5448	-0.004144694
0.545	-0.004005948
0.5452	-0.003739046
0.5454	-0.002668671
0.5456	-0.0014687
0.5458	0.0009256253
0.546	0.001077869
0.5462	0.0007862541
0.5464	0.002351576
0.5466	0.003208974
0.5468	0.004266333
0.547	0.005337311
0.5472	0.006662135
0.5474	0.006988585
0.5476	0.008505991
0.5478	0.01049091
0.548	0.01194286
0.5482	0.0120693
0.5484	0.01152602
0.5486	0.009684619
0.5488	0.01019754
0.549	0.01008748
0.5492	0.01099706
0.5494	0.01233379
0.5496	0.01224467
0.5498	0.01199009
0.55	0.01200972
0.5502	0.01134872
0.5504	0.0109373
0.5506	0.01229083
0.5508	0.01274998
0.551	0.01319619
0.5512	0.01224943
0.5514	0.01196459
0.5516	0.01309973
0.5518	0.01314978
0.552	0.01432703
0.5522	0.01421621
0.5524	0.01437731
0.5526	0.01325016
0.5528	0.01234999
0.553	0.0122635
0.5532	0.01061659
0.5534	0.008521924
0.5536	0.007037011
0.5538	0.00756601
0.554	0.008376081
0.5542	0.006173535
0.5544	0.003985571
0.5546	0.004115174
0.5548	0.004199983
0.555	0.003517407
0.5552	-2.118842e-5
0.5554	-0.001484107
0.5556	-0.001633941
0.5558	-0.002062198
0.556	-0.001314652
0.5562	-0.0009984794
0.5564	-0.002317663
0.5566	-0.003995184
0.5568	-0.003708929
0.557	-0.003595349
0.5572	-0.005261473
0.5574	-0.004550172
0.5576	-0.00520077
0.5578	-0.005913948
0.558	-0.006869707
0.5582	-0.007135159
0.5584	-0.007444505
0.5586	-0.007696825
0.5588	-0.008991104
0.559	-0.008558132
0.5592	-0.008511142
0.5594	-0.01046201
0.5596	-0.01073383
0.5598	-0.01058053
0.56	-0.01069849
0.5602	-0.01203508
0.5604	-0.01173567
0.5606	-0.01227489
0.5608	-0.01318181
0.561	-0.01348313
0.5612	-0.01391711
0.5614	-0.01368895
0.5616	-0.01324783
0.5618	-0.01315012
0.562	-0.01286353
0.5622	-0.01155802
0.5624	-0.01149002
0.5626	-0.01186197
0.5628	-0.01091763
0.563	-0.01059105
0.5632	-0.01072611
0.5634	-0.008907668
0.5636	-0.00716705
0.5638	-0.006413598
0.564	-0.007585465
0.5642	-0.00947118
0.5644	-0.007283368
0.5646	-0.006299244
0.5648	-0.005652374
0.565	-0.005090088
0.5652	-0.005263433
0.5654	-0.005702095
0.5656	-0.003623354
0.5658	-0.002604134
0.566	-0.003208667
0.5662	-0.003081147
0.5664	-0.001754468
0.5666	-0.0001135193
0.5668	0.001173966
0.567	0.002052054
0.5672	0.003443574
0.5674	0.005318247
0.5676	0.006118687
0.5678	0.005988529
0.568	0.00588547
0.5682	0.006589564
0.5684	0.006190496
0.5686	0.006218781
0.5688	0.006981443
0.569	0.007065054
0.5692	0.00713222
0.5694	0.006227718
0.5696	0.006717352
0.5698	0.008217564
0.57	0.007492295
0.5702	0.007509873
0.5704	0.007696986
0.5706	0.008558046
0.5708	0.01021499
0.571	0.01078404
0.5712	0.01316446
0.5714	0.0138557
0.5716	0.0126681
0.5718	0.01102502
0.572	0.009841226
0.5722	0.01125928
0.5724	0.01137048
0.5726	0.00938257
0.5728	0.008490147
0.573	0.008269314
0.5732	0.008757745
0.5734	0.007986105
0.5736	0.007563111
0.5738	0.006833012
0.574	0.008718882
0.5742	0.00808759
0.5744	0.007092001
0.5746	0.006829903
0.5748	0.005707241
0.575	0.005827649
0.5752	0.00524477
0.5754	0.00508147
0.5756	0.004709673
0.5758	0.003652947
0.576	0.001258964
0.5762	0.0002436546
0.5764	-0.0008211362
0.5766	0.0001363956
0.5768	-0.0007856162
0.577	-0.003727853
0.5772	-0.004070917
0.5774	-0.004853033
0.5776	-0.005043888
0.5778	-0.005463092
0.578	-0.005027497
0.5782	-0.006075633
0.5784	-0.008139561
0.5786	-0.008989408
0.5788	-0.008705203
0.579	-0.009029905
0.5792	-0.009534796
0.5794	-0.01009875
0.5796	-0.01118438
0.5798	-0.01103496
0.58	-0.01084434
0.5802	-0.01100557
0.5804	-0.01243342
0.5806	-0.01188383
0.5808	-0.01153838
0.581	-0.01077796
0.5812	-0.01176889
0.5814	-0.01287297
0.5816	-0.01195308
0.5818	-0.01319878
0.582	-0.01266303
0.5822	-0.01232654
0.5824	-0.01227008
0.5826	-0.01109552
0.5828	-0.009209493
0.583	-0.00861131
0.5832	-0.00768911
0.5834	-0.0067082
0.5836	-0.007444309
0.5838	-0.008091733
0.584	-0.008000701
0.5842	-0.006849043
0.5844	-0.005362135
0.5846	-0.003722032
0.5848	-0.002247171
0.585	-0.002480426
0.5852	-0.001474322
0.5854	0.0004150496
0.5856	0.001320952
0.5858	0.001629346
0.586	0.001470725
0.5862	0.003140791
0.5864	0.005030297
0.5866	0.005347225
0.5868	0.005557649
0.587	0.006326325
0.5872	0.008338062
0.5874	0.008744789
0.5876	0.009318398
0.5878	0.009407727
0.588	0.009914582
0.5882	0.01031029
0.5884	0.009422084
0.5886	0.008012909
0.5888	0.008662182
0.589	0.008532075
0.5892	0.009051763
0.5894	0.01096896
0.5896	0.01119739
0.5898	0.01142769
0.59	0.01215029
0.5902	0.01320046
0.5904	0.01199212
0.5906	0.01170284
0.5908	0.01150389
0.591	0.01097837
0.5912	0.01104919
0.5914	0.01304369
0.5916	0.01352776
0.5918	0.01335497
0.592	0.01382483
0.5922	0.01255998
0.5924	0.01249409
0.5926	0.0131303
0.5928	0.01318755
0.593	0.01223945
0.5932	0.01115577
0.5934	0.009347953
0.5936	0.009150142
0.5938	0.008825961
0.594	0.007219423
0.5942	0.006023927
0.5944	0.005020659
0.5946	0.003871131
0.5948	0.004886925
0.595	0.005007948
0.5952	0.005607275
0.5954	0.004187863
0.5956	0.002317942
0.5958	0.001493217
0.596	0.0005804469
0.5962	0.0004733882
0.5964	-0.001095097
0.5966	-0.001719538
0.5968	-0.003022828
0.597	-0.006355435
0.5972	-0.008936255
0.5974	-0.01049272
0.5976	-0.01196108
0.5978	-0.01354106
0.598	-0.01357786
0.5982	-0.01479857
0.5984	-0.01549038
0.5986	-0.01565836
0.5988	-0.01732168
0.599	-0.0171143
0.5992	-0.01608312
0.5994	-0.01595439
0.5996	-0.01703263
0.5998	-0.01683594
0.6	-0.01568008
0.6002	-0.01522586
0.6004	-0.01546863
0.6006	-0.01710819
0.6008	-0.01495858
0.601	-0.01477691
0.6012	-0.01341774
0.6014	-0.01102497
0.6016	-0.01141131
0.6018	-0.01183555
0.602	-0.01083295
0.6022	-0.01014199
0.6024	-0.00971224
0.6026	-0.009577909
0.6028	-0.00972038
0.603	-0.009653216
0.6032	-0.009539773
0.6034	-0.007908237
0.6036	-0.00621675
0.6038	-0.004242553
0.604	-0.004799511
0.6042	-0.004719106
0.6044	-0.003068736
0.6046	-0.003252289
0.6048	-0.002546532
0.605	-0.0007294508
0.6052	-0.0002344067
0.6054	0.0003261266
0.6056	0.0004943857
0.6058	0.0001604364
0.606	0.000822895
0.6062	0.002924381
0.6064	0.004200144
0.6066	0.005392123
0.6068	0.006809691
0.607	0.007948671
0.6072	0.009476905
0.6074	0.009771282
0.6076	0.009363365
0.6078	0.00984711
0.608	0.01053448
0.6082	0.01204312
0.6084	0.0130748
0.6086	0.01228871
0.6088	0.01214678
0.609	0.0133211
0.6092	0.01281314
0.6094	0.01190794
0.6096	0.01242565
0.6098	0.01284594
0.61	0.01122926
0.6102	0.01205351
0.6104	0.01149167
0.6106	0.01090593
0.6108	0.009959175
0.611	0.008183444
0.6112	0.009193461
0.6114	0.009042984
0.6116	0.01079921
0.6118	0.01237602
0.612	0.01106237
0.6122	0.008899911
0.6124	0.00897108
0.6126	0.00961324
0.6128	0.01058201
0.613	0.009090745
0.6132	0.005539374
0.6134	0.005374418
0.6136	0.005709944
0.6138	0.005494206
0.614	0.005389375
0.6142	0.004194076
0.6144	0.002485074
0.6146	0.001156052
0.6148	0.002833159
0.615	0.002896082
0.6152	0.001623783
0.6154	-0.001278094
0.6156	-0.001517002
0.6158	-0.002166083
0.616	-0.003527563
0.6162	-0.004382527
0.6164	-0.005448981
0.6166	-0.006052802
0.6168	-0.008116433
0.617	-0.009973994
0.6172	-0.0103536
0.6174	-0.01021338
0.6176	-0.008205661
0.6178	-0.008218801
0.618	-0.008633604
0.6182	-0.007332512
0.6184	-0.008034168
0.6186	-0.006948318
0.6188	-0.007682339
0.619	-0.008416489
0.6192	-0.007868643
0.6194	-0.008651062
0.6196	-0.01044581
0.6198	-0.01131806
0.62	-0.01062363
0.6202	-0.009994431
0.6204	-0.00910069
0.6206	-0.008137545
0.6208	-0.007571609
0.621	-0.009112866
0.6212	-0.009759157
0.6214	-0.009156312
0.6216	-0.01093192
0.6218	-0.01213588
0.622	-0.012081
0.6222	-0.01118327
0.6224	-0.009346933
0.6226	-0.007935721
0.6228	-0.007575502
0.623	-0.005859031
0.6232	-0.004724983
0.6234	-0.004422897
0.6236	-0.005141293
0.6238	-0.00523657
0.624	-0.003244663
0.6242	-0.002796746
0.6244	-0.002587816
0.6246	-0.002766487
0.6248	-0.002415659
0.625	-0.002785458
0.6252	-0.002012338
0.6254	-0.0006953254
0.6256	-0.0004534157
0.6258	-0.0004828856
0.626	0.0004872227
0.6262	0.001200253
0.6264	0.002698771
0.6266	0.003449468
0.6268	0.003810809
0.627	0.004495595
0.6272	0.005730912
0.6274	0.007786287
0.6276	0.008832801
0.6278	0.007945915
0.628	0.007944444
0.6282	0.01117758
0.6284	0.01189702
0.6286	0.0108955
0.6288	0.009162554
0.629	0.005876036
0.6292	0.005249182
0.6294	0.007076766
0.6296	0.007159581
0.6298	0.008607929
0.63	0.009259382
0.6302	0.007734358
0.6304	0.007134199
0.6306	0.007178632
0.6308	0.008609137
0.631	0.008975286
0.6312	0.007548366
0.6314	0.009522653
0.6316	0.009556614
0.6318	0.008085914
0.632	0.007791238
0.6322	0.008672127
0.6324	0.009167368
0.6326	0.008318024
0.6328	0.007489021
0.633	0.007649801
0.6332	0.007611034
0.6334	0.007491469
0.6336	0.006514084
0.6338	0.005014305
0.634	0.005054346
0.6342	0.00542425
0.6344	0.005652834
0.6346	0.005625304
0.6348	0.004808042
0.635	0.003592338
0.6352	0.00333798
0.6354	0.002418962
0.6356	0.002177229
0.6358	0.0003566344
0.636	-0.0003617361
0.6362	-0.001229663
0.6364	-0.00034193
0.6366	-7.699035e-6
0.6368	-0.002835327
0.637	-0.005563316
0.6372	-0.006674123
0.6374	-0.007032152
0.6376	-0.006716739
0.6378	-0.006875702
0.638	-0.00801015
0.6382	-0.008763092
0.6384	-0.0107223
0.6386	-0.01260106
0.6388	-0.01256252
0.639	-0.01222981
0.6392	-0.01165027
0.6394	-0.01305062
0.6396	-0.01352639
0.6398	-0.01370827
0.64	-0.01415748
0.6402	-0.0145248
0.6404	-0.01402439
0.6406	-0.01328879
0.6408	-0.01301565
0.641	-0.01361572
0.6412	-0.01314317
0.6414	-0.01217388
0.6416	-0.01324504
0.6418	-0.01325156
0.642	-0.01164632
0.6422	-0.01108825
0.6424	-0.00994118
0.6426	-0.009639609
0.6428	-0.00884819
0.643	-0.007113639
0.6432	-0.005962953
0.6434	-0.004351154
0.6436	-0.003170353
0.6438	-0.003145219
0.644	-0.003486531
0.6442	-0.00432873
0.6444	-0.005171689
0.6446	-0.004578963
0.6448	-0.003763659
0.645	-0.00181605
0.6452	-0.0004510486
0.6454	0.001053586
0.6456	0.001337977
0.6458	0.002131731
0.646	0.003014349
0.6462	0.002101778
0.6464	0.003860257
0.6466	0.004172188
0.6468	0.00414561
0.647	0.005747929
0.6472	0.006410101
0.6474	0.007154298
0.6476	0.006587633
0.6478	0.008241212
0.648	0.008212624
0.6482	0.007713974
0.6484	0.008241877
0.6486	0.008876029
0.6488	0.01014537
0.649	0.00914485
0.6492	0.009952201
0.6494	0.01001364
0.6496	0.01167642
0.6498	0.01189868
0.65	0.01137976
0.6502	0.01201959
0.6504	0.01154199
0.6506	0.01166292
0.6508	0.01220318
0.651	0.01379703
0.6512	0.0143356
0.6514	0.01382908
0.6516	0.01295119
0.6518	0.01264434
0.652	0.01305334
0.6522	0.01318296
0.6524	0.01316807
0.6526	0.01261701
0.6528	0.01154236
0.653	0.01026978
0.6532	0.009730107
0.6534	0.01004002
0.6536	0.009471461
0.6538	0.009193726
0.654	0.007807437
0.6542	0.007528541
0.6544	0.007080466
0.6546	0.006015745
0.6548	0.004570861
0.655	0.003391275
0.6552	0.002109461
0.6554	0.002334448
0.6556	0.002291567
0.6558	0.0004240283
0.656	-0.001540965
0.6562	-0.002955368
0.6564	-0.003521354
0.6566	-0.004630703
0.6568	-0.005427293
0.657	-0.006449691
0.6572	-0.007330019
0.6574	-0.008293922
0.6576	-0.01074275
0.6578	-0.01027343
0.658	-0.007585417
0.6582	-0.008366169
0.6584	-0.009197057
0.6586	-0.0104403
0.6588	-0.01033846
0.659	-0.009003132
0.6592	-0.008512572
0.6594	-0.01021669
0.6596	-0.01104253
0.6598	-0.01099964
0.66	-0.01060477
0.6602	-0.01068561
0.6604	-0.01116931
0.6606	-0.01110686
0.6608	-0.009377241
0.661	-0.009675312
0.6612	-0.01068573
0.6614	-0.01115991
0.6616	-0.0104126
0.6618	-0.01235
0.662	-0.01290389
0.6622	-0.01103962
0.6624	-0.009931825
0.6626	-0.009544032
0.6628	-0.009230441
0.663	-0.009325476
0.6632	-0.009306791
0.6634	-0.008861269
0.6636	-0.009166433
0.6638	-0.008440801
0.664	-0.007565005
0.6642	-0.007199213
0.6644	-0.00719258
0.6646	-0.006861489
0.6648	-0.005516899
0.665	-0.00300032
0.6652	-0.002787083
0.6654	-0.002408612
0.6656	-0.002610322
0.6658	-0.002056106
0.666	0.0003351664
0.6662	0.0009283576
0.6664	0.001605677
0.6666	0.002607083
0.6668	0.003805815
0.667	0.005210165
0.6672	0.006008088
0.6674	0.007123256
0.6676	0.00772508
0.6678	0.009267088
0.668	0.009671574
0.6682	0.01033064
0.6684	0.01089304
0.6686	0.009884748
0.6688	0.01010774
0.669	0.01062531
0.6692	0.01068051
0.6694	0.01117918
0.6696	0.01196508
0.6698	0.01209928
0.67	0.01240648
0.6702	0.01174823
0.6704	0.01055968
0.6706	0.0108671
0.6708	0.01085923
0.671	0.009543471
0.6712	0.008754969
0.6714	0.008650628
0.6716	0.008196771
0.6718	0.007176786
0.672	0.007752767
0.6722	0.007449707
0.6724	0.008920098
0.6726	0.009126078
0.6728	0.008316503
0.673	0.008433023
0.6732	0.008983812
0.6734	0.008442985
0.6736	0.00718511
0.6738	0.006612443
0.674	0.005507215
0.6742	0.003933308
0.6744	0.002458445
0.6746	0.002190803
0.6748	0.003331301
0.675	0.003463442
0.6752	0.001268578
0.6754	0.001321559
0.6756	0.001111028
0.6758	0.0003786865
0.676	-0.0008077163
0.6762	-0.003108667
0.6764	-0.00290371
0.6766	-0.003018556
0.6768	-0.003861087
0.677	-0.004956185
0.6772	-0.007069785
0.6774	-0.008785847
0.6776	-0.008821003
0.6778	-0.009722209
0.678	-0.009913466
0.6782	-0.01012485
0.6784	-0.01257068
0.6786	-0.01311911
0.6788	-0.01315925
0.679	-0.01165814
0.6792	-0.01129622
0.6794	-0.01307458
0.6796	-0.01410502
0.6798	-0.01365755
0.68	-0.01255055
0.6802	-0.01119309
0.6804	-0.01073854
0.6806	-0.012024
0.6808	-0.01139004
0.681	-0.01146974
0.6812	-0.01310837
0.6814	-0.01286358
0.6816	-0.01102369
0.6818	-0.01139778
0.682	-0.01115075
0.6822	-0.01034328
0.6824	-0.009716858
0.6826	-0.009629368
0.6828	-0.009324379
0.683	-0.008201838
0.6832	-0.007929797
0.6834	-0.006806592
0.6836	-0.004574363
0.6838	-0.005471607
0.684	-0.006382497
0.6842	-0.006154747
0.6844	-0.006296724
0.6846	-0.005910171
0.6848	-0.003933695
0.685	-0.00317785
0.6852	-0.004163449
0.6854	-0.003409045
0.6856	-0.002729593
0.6858	-0.002571363
0.686	-0.0009558766
0.6862	5.657652e-5
0.6864	-0.001770615
0.6866	3.087279e-5
0.6868	0.002897454
0.687	0.002980587
0.6872	0.003957595
0.6874	0.005000527
0.6876	0.005474485
0.6878	0.005794881
0.688	0.007057296
0.6882	0.009154947
0.6884	0.01164487
0.6886	0.01111245
0.6888	0.01061737
0.689	0.011421
0.6892	0.01135619
0.6894	0.01146137
0.6896	0.01123343
0.6898	0.01047265
0.69	0.01045654
0.6902	0.01061197
0.6904	0.01065743
0.6906	0.01150733
0.6908	0.01267928
0.691	0.01331807
0.6912	0.01324222
0.6914	0.0121689
0.6916	0.01322058
0.6918	0.01189093
0.692	0.01081969
0.6922	0.009333191
0.6924	0.009078628
0.6926	0.009148777
0.6928	0.008128717
0.693	0.008241876
0.6932	0.008346378
0.6934	0.00916002
0.6936	0.008426197
0.6938	0.007498947
0.694	0.006792342
0.6942	0.005377844
0.6944	0.006302697
0.6946	0.006285184
0.6948	0.005153198
0.695	0.004909041
0.6952	0.005328504
0.6954	0.003005586
0.6956	0.002200763
0.6958	0.001936617
0.696	0.001412152
0.6962	-0.0005719903
0.6964	-0.001712292
0.6966	-0.003007131
0.6968	-0.003547042
0.697	-0.006354972
0.6972	-0.005895793
0.6974	-0.006431274
0.6976	-0.007639068
0.6978	-0.00952351
0.698	-0.009751998
0.6982	-0.009275077
0.6984	-0.009041901
0.6986	-0.008392082
0.6988	-0.008531954
0.699	-0.009109459
0.6992	-0.008620057
0.6994	-0.00824475
0.6996	-0.008881943
0.6998	-0.01065504
0.7	-0.01082023
0.7002	-0.0115861
0.7004	-0.01043209
0.7006	-0.01054366
0.7008	-0.01159027
0.701	-0.01267866
0.7012	-0.01348069
0.7014	-0.0145113
0.7016	-0.01414442
0.7018	-0.01232892
0.702	-0.01189552
0.7022	-0.01193952
0.7024	-0.01112255
0.7026	-0.01054573
0.7028	-0.00813824
0.703	-0.006830572
0.7032	-0.00786702
0.7034	-0.007555476
0.7036	-0.006275796
0.7038	-0.004609619
0.704	-0.002757305
0.7042	-0.002173599
0.7044	-0.003383329
0.7046	-0.003414185
0.7048	-0.002793782
0.705	-0.002134433
0.7052	-0.0004252043
0.7054	-0.001083671
0.7056	0.0007614503
0.7058	0.00216964
0.706	0.002704694
0.7062	0.003754847
0.7064	0.003868557
0.7066	0.005089186
0.7068	0.006131129
0.707	0.007008606
0.7072	0.007305116
0.7074	0.007635688
0.7076	0.00734801
0.7078	0.00815155
0.708	0.01013992
0.7082	0.01050917
0.7084	0.01134942
0.7086	0.01258838
0.7088	0.0119577
0.709	0.01305818
0.7092	0.01377035
0.7094	0.01241574
0.7096	0.01137626
0.7098	0.0107004
0.71	0.01036281
0.7102	0.01108043
0.7104	0.01347551
0.7106	0.01470539
0.7108	0.01430111
0.711	0.01472313
0.7112	0.01425838
0.7114	0.01318971
0.7116	0.01181961
0.7118	0.01135449
0.712	0.01089172
0.7122	0.01029203
0.7124	0.0117771
0.7126	0.01223476
0.7128	0.01153965
0.713	0.01054555
0.7132	0.01147154
0.7134	0.01006951
0.7136	0.007302514
0.7138	0.006562662
0.714	0.005720798
0.7142	0.004072802
0.7144	0.003571069
0.7146	0.00219738
0.7148	0.001084635
0.715	0.001206235
0.7152	0.001073885
0.7154	0.0003062776
0.7156	-0.0001210115
0.7158	-0.003062456
0.716	-0.004800547
0.7162	-0.004092197
0.7164	-0.003558341
0.7166	-0.002031591
0.7168	-0.001254766
0.717	-0.001929409
0.7172	-0.004867923
0.7174	-0.007370113
0.7176	-0.00941544
0.7178	-0.01015622
0.718	-0.009069487
0.7182	-0.01037173
0.7184	-0.01260944
0.7186	-0.01264415
0.7188	-0.01164971
0.719	-0.01194646
0.7192	-0.01266625
0.7194	-0.01138592
0.7196	-0.01177209
0.7198	-0.01227799
0.72	-0.01344934
0.7202	-0.014701
0.7204	-0.01479638
0.7206	-0.01565425
0.7208	-0.0166315
0.721	-0.01591724
0.7212	-0.01394219
0.7214	-0.01425892
0.7216	-0.01346194
0.7218	-0.01381848
0.722	-0.01509309
0.7222	-0.01440859
0.7224	-0.01404981
0.7226	-0.01398917
0.7228	-0.01355619
0.723	-0.01353414
0.7232	-0.01131681
0.7234	-0.009689359
0.7236	-0.008448869
0.7238	-0.00731824
0.724	-0.007530544
0.7242	-0.007249476
0.7244	-0.006348685
0.7246	-0.003552589
0.7248	-0.002480507
0.725	-0.002147413
0.7252	-0.001628817
0.7254	-0.000777696
0.7256	0.0001388123
0.7258	-0.0002180604
0.726	0.0005601924
0.7262	0.001519925
0.7264	0.003827074
0.7266	0.005792283
0.7268	0.006749498
0.727	0.007302105
0.7272	0.006195325
0.7274	0.006701057
0.7276	0.007705978
0.7278	0.00788663
0.728	0.007587892
0.7282	0.008389005
0.7284	0.009081243
0.7286	0.009205434
0.7288	0.008457194
0.729	0.009522269
0.7292	0.009968959
0.7294	0.01007696
0.7296	0.01001211
0.7298	0.01025779
0.73	0.01254364
0.7302	0.01267902
0.7304	0.0117593
0.7306	0.01308505
0.7308	0.01381557
0.731	0.01137834
0.7312	0.01232234
0.7314	0.01353225
0.7316	0.01359255
0.7318	0.01296617
0.732	0.01151575
0.7322	0.01035163
0.7324	0.01035441
0.7326	0.00941772
0.7328	0.01052002
0.733	0.01260017
0.7332	0.0122405
0.7334	0.009357059
0.7336	0.008058329
0.7338	0.00810288
0.734	0.006476582
0.7342	0.00640415
0.7344	0.005556155
0.7346	0.004739242
0.7348	0.003671709
0.735	0.001775254
0.7352	0.002354353
0.7354	0.0008785797
0.7356	0.0006133304
0.7358	-0.0007088225
0.736	-0.0005369391
0.7362	-0.002127408
0.7364	-0.004686679
0.7366	-0.005130742
0.7368	-0.006918476
0.737	-0.007824025
0.7372	-0.009264905
0.7374	-0.009647943
0.7376	-0.01011387
0.7378	-0.009886118
0.738	-0.01020937
0.7382	-0.01138481
0.7384	-0.0132081
0.7386	-0.01307644
0.7388	-0.01259213
0.739	-0.01248929
0.7392	-0.01281732
0.7394	-0.01251583
0.7396	-0.01152829
0.7398	-0.01266518
0.74	-0.01360421
0.7402	-0.01261663
0.7404	-0.01240351
0.7406	-0.01259962
0.7408	-0.01290132
0.741	-0.0129049
0.7412	-0.0120083
0.7414	-0.01315756
0.7416	-0.01293686
0.7418	-0.01300803
0.742	-0.01419211
0.7422	-0.01335693
0.7424	-0.01297924
0.7426	-0.01150094
0.7428	-0.01043461
0.743	-0.008921862
0.7432	-0.008094275
0.7434	-0.007331667
0.7436	-0.005046518
0.7438	-0.003146215
0.744	-0.002590394
0.7442	-0.002965208
0.7444	-0.003125373
0.7446	-0.002301622
0.7448	-0.001268193
0.745	0.001602292
0.7452	0.002938253
0.7454	0.004080779
0.7456	0.004942159
0.7458	0.004697022
0.746	0.005072232
0.7462	0.004961258
0.7464	0.006840561
0.7466	0.007675907
0.7468	0.007141501
0.747	0.007398906
0.7472	0.00775481
0.7474	0.009511769
0.7476	0.009771689
0.7478	0.01000409
0.748	0.01114166
0.7482	0.01177124
0.7484	0.01196596
0.7486	0.01371695
0.7488	0.01492061
0.749	0.01475099
0.7492	0.01410665
0.7494	0.01379037
0.7496	0.01385741
0.7498	0.01464754
0.75	0.01402201
0.7502	0.01264335
0.7504	0.01246551
0.7506	0.01192782
0.7508	0.01121573
0.751	0.01185206
0.7512	0.01203971
0.7514	0.01068837
0.7516	0.009151603
0.7518	0.01004973
0.752	0.01191773
0.7522	0.01047595
0.7524	0.009012445
0.7526	0.008703237
0.7528	0.008668454
0.753	0.00786105
0.7532	0.008098509
0.7534	0.006842815
0.7536	0.006513788
0.7538	0.006134183
0.754	0.005617484
0.7542	0.005422972
0.7544	0.003693674
0.7546	0.002483758
0.7548	0.002482262
0.755	0.003613238
0.7552	0.002606004
0.7554	0.001660252
0.7556	0.001040804
0.7558	0.0004501699
0.756	-0.001222431
0.7562	-0.00178196
0.7564	-0.002632377
0.7566	-0.003746411
0.7568	-0.004144857
0.757	-0.004302917
0.7572	-0.005422715
0.7574	-0.006346121
0.7576	-0.006339325
0.7578	-0.006095368
0.758	-0.006598894
0.7582	-0.008147612
0.7584	-0.007680317
0.7586	-0.008902483
0.7588	-0.00935379
0.759	-0.009423211
0.7592	-0.01068747
0.7594	-0.01129381
0.7596	-0.01244165
0.7598	-0.01374171
0.76	-0.01442152
0.7602	-0.01435729
0.7604	-0.0157619
0.7606	-0.01669612
0.7608	-0.01638428
0.761	-0.01720882
0.7612	-0.01831726
0.7614	-0.01862667
0.7616	-0.0184675
0.7618	-0.01782691
0.762	-0.01718096
0.7622	-0.01641363
0.7624	-0.01734009
0.7626	-0.01850232
0.7628	-0.01739901
0.763	-0.01599931
0.7632	-0.01542058
0.7634	-0.01392039
0.7636	-0.01262167
0.7638	-0.01170777
0.764	-0.009643625
0.7642	-0.009126406
0.7644	-0.005596715
0.7646	-0.003743342
0.7648	-0.003246314
0.765	-0.002580734
0.7652	-0.000579681
0.7654	0.0002326667
0.7656	-0.0008654884
0.7658	-7.998195e-5
0.766	0.002542335
0.7662	0.004427324
0.7664	0.005180483
0.7666	0.004390028
0.7668	0.006020847
0.767	0.007934834
0.7672	0.008265167
0.7674	0.01086831
0.7676	0.01122423
0.7678	0.01198269
0.768	0.0133797
0.7682	0.01382817
0.7684	0.01447382
0.7686	0.01417352
0.7688	0.01351676
0.769	0.01277849
0.7692	0.0154281
0.7694	0.01592411
0.7696	0.01633884
0.7698	0.01665051
0.77	0.01696347
0.7702	0.01781723
0.7704	0.01742207
0.7706	0.0159993
0.7708	0.01490804
0.771	0.01439865
0.7712	0.01382136
0.7714	0.01405288
0.7716	0.01365342
0.7718	0.01458568
0.772	0.01386336
0.7722	0.01218174
0.7724	0.01200491
0.7726	0.01081114
0.7728	0.00880201
0.773	0.008007747
0.7732	0.008372668
0.7734	0.008549768
0.7736	0.008722312
0.7738	0.009093579
0.774	0.00733237
0.7742	0.006829903
0.7744	0.006642791
0.7746	0.006838966
0.7748	0.005374026
0.775	0.003539743
0.7752	0.002750658
0.7754	0.001583791
0.7756	-0.0005834157
0.7758	0.0006820816
0.776	-0.0002934073
0.7762	-0.001901529
0.7764	-0.004066271
0.7766	-0.006488239
0.7768	-0.005188558
0.777	-0.005265015
0.7772	-0.007718361
0.7774	-0.008382771
0.7776	-0.008746749
0.7778	-0.007643861
0.778	-0.008534641
0.7782	-0.008571099
0.7784	-0.008592991
0.7786	-0.01054567
0.7788	-0.01075016
0.779	-0.01195637
0.7792	-0.01265725
0.7794	-0.01282117
0.7796	-0.01344199
0.7798	-0.01438329
0.78	-0.01442644
0.7802	-0.01401324
0.7804	-0.01497604
0.7806	-0.01445933
0.7808	-0.01250854
0.781	-0.01268952
0.7812	-0.01321792
0.7814	-0.01340532
0.7816	-0.01418274
0.7818	-0.01363447
0.782	-0.01315102
0.7822	-0.01299195
0.7824	-0.01325449
0.7826	-0.01235958
0.7828	-0.009583197
0.783	-0.008759826
0.7832	-0.007081046
0.7834	-0.00672168
0.7836	-0.006835195
0.7838	-0.005771739
0.784	-0.005178469
0.7842	-0.004260438
0.7844	-0.005373218
0.7846	-0.005593843
0.7848	-0.004202615
0.785	-0.001179733
0.7852	0.0005323299
0.7854	0.001566683
0.7856	0.001729387
0.7858	0.001588125
0.786	0.002556296
0.7862	0.004382636
0.7864	0.00431117
0.7866	0.005755927
0.7868	0.006774365
0.787	0.008154694
0.7872	0.01026714
0.7874	0.009526562
0.7876	0.007814014
0.7878	0.009167744
0.788	0.01064912
0.7882	0.01149129
0.7884	0.01231085
0.7886	0.01266457
0.7888	0.0138224
0.789	0.01307504
0.7892	0.01095692
0.7894	0.01211839
0.7896	0.01252021
0.7898	0.01309385
0.79	0.01374605
0.7902	0.0124969
0.7904	0.01182114
0.7906	0.0118084
0.7908	0.01026155
0.791	0.01065748
0.7912	0.01019664
0.7914	0.01076892
0.7916	0.01226963
0.7918	0.01221595
0.792	0.01124812
0.7922	0.01063834
0.7924	0.0109133
0.7926	0.009970712
0.7928	0.009622406
0.793	0.01043942
0.7932	0.00855288
0.7934	0.006268262
0.7936	0.005390155
0.7938	0.005227489
0.794	0.005739253
0.7942	0.004637305
0.7944	0.003749569
0.7946	0.00342119
0.7948	0.001330897
0.795	-0.001610802
0.7952	-0.003234868
0.7954	-0.001872329
0.7956	-0.001694951
0.7958	-0.00216968
0.796	-0.002194144
0.7962	-0.003394373
0.7964	-0.003939623
0.7966	-0.004386173
0.7968	-0.006076041
0.797	-0.006207282
0.7972	-0.005458823
0.7974	-0.006485431
0.7976	-0.007120609
0.7978	-0.007511277
0.798	-0.007476796
0.7982	-0.007801225
0.7984	-0.008462068
0.7986	-0.009286569
0.7988	-0.009360258
0.799	-0.009692164
0.7992	-0.009641418
0.7994	-0.01012164
0.7996	-0.0109158
0.7998	-0.01227698
0.8	-0.01454159
0.8002	-0.01526061
0.8004	-0.01502165
0.8006	-0.01354085
0.8008	-0.01465848
0.801	-0.01470772
0.8012	-0.01472707
0.8014	-0.01581002
0.8016	-0.01543124
0.8018	-0.01296914
0.802	-0.01129079
0.8022	-0.01263967
0.8024	-0.01317609
0.8026	-0.01212793
0.8028	-0.01048163
0.803	-0.009809553
0.8032	-0.008439887
0.8034	-0.008218135
0.8036	-0.007532781
0.8038	-0.007794471
0.804	-0.007419261
0.8042	-0.005437541
0.8044	-0.003824121
0.8046	-0.002876721
0.8048	-0.003990263
0.805	-0.00331681
0.8052	-0.001829136
0.8054	0.0002685567
0.8056	0.001516522
0.8058	0.001606961
0.806	0.001464647
0.8062	0.001597154
0.8064	0.001830068
0.8066	0.002196912
0.8068	0.002690269
0.807	0.003336344
0.8072	0.004253889
0.8074	0.005420486
0.8076	0.006749873
0.8078	0.009510369
0.808	0.01014514
0.8082	0.009556498
0.8084	0.009299804
0.8086	0.009103187
0.8088	0.00911407
0.809	0.01019913
0.8092	0.01069683
0.8094	0.01032244
0.8096	0.00952642
0.8098	0.009650952
0.81	0.01119057
0.8102	0.01044423
0.8104	0.008704615
0.8106	0.008998319
0.8108	0.009801815
0.811	0.009393718
0.8112	0.008747431
0.8114	0.01056453
0.8116	0.01144064
0.8118	0.01072788
0.812	0.01066962
0.8122	0.01159872
0.8124	0.01164484
0.8126	0.01144125
0.8128	0.01103138
0.813	0.01151955
0.8132	0.01137498
0.8134	0.01082112
0.8136	0.009874155
0.8138	0.009040217
0.814	0.008717612
0.8142	0.007208204
0.8144	0.005219799
0.8146	0.003831875
0.8148	0.004089486
0.815	0.003686321
0.8152	0.00160278
0.8154	0.0004954537
0.8156	0.001642755
0.8158	0.000104725
0.816	-0.001849714
0.8162	-0.002134674
0.8164	-0.003022242
0.8166	-0.003783092
0.8168	-0.003865975
0.817	-0.004880801
0.8172	-0.00551915
0.8174	-0.005633822
0.8176	-0.004271852
0.8178	-0.004154474
0.818	-0.006747215
0.8182	-0.009195866
0.8184	-0.009311587
0.8186	-0.00898421
0.8188	-0.009758224
0.819	-0.0112736
0.8192	-0.01090684
0.8194	-0.01115082
0.8196	-0.01076043
0.8198	-0.009222768
0.82	-0.01067915
0.8202	-0.01210834
0.8204	-0.01280055
0.8206	-0.01360665
0.8208	-0.01520128
0.821	-0.01571351
0.8212	-0.01512927
0.8214	-0.01623992
0.8216	-0.01619372
0.8218	-0.01352136
0.822	-0.0123887
0.8222	-0.01166069
0.8224	-0.01085383
0.8226	-0.01141848
0.8228	-0.009823998
0.823	-0.009820298
0.8232	-0.009221822
0.8234	-0.00708396
0.8236	-0.007048486
0.8238	-0.007522302
0.824	-0.008298495
0.8242	-0.007962736
0.8244	-0.007422137
0.8246	-0.006282083
0.8248	-0.005078059
0.825	-0.001614932
0.8252	-0.0006866037
0.8254	-0.001256173
0.8256	-0.001109932
0.8258	-0.0005773044
0.826	-0.0006034353
0.8262	0.00145368
0.8264	0.002757782
0.8266	0.00268383
0.8268	0.002605058
0.827	0.003240161
0.8272	0.003923372
0.8274	0.005334429
0.8276	0.006481093
0.8278	0.006827126
0.828	0.007999418
0.8282	0.009075876
0.8284	0.008779528
0.8286	0.008756787
0.8288	0.009847556
0.829	0.01032489
0.8292	0.01109091
0.8294	0.01067098
0.8296	0.01120008
0.8298	0.01110325
0.83	0.01220591
0.8302	0.01409516
0.8304	0.01323621
0.8306	0.0122246
0.8308	0.0109055
0.831	0.01021476
0.8312	0.01188784
0.8314	0.0113869
0.8316	0.01089442
0.8318	0.0114449
0.832	0.01112403
0.8322	0.01206314
0.8324	0.01157246
0.8326	0.01013916
0.8328	0.01008484
0.833	0.009218656
0.8332	0.006587353
0.8334	0.006444149
0.8336	0.006558736
0.8338	0.006036764
0.834	0.005112451
0.8342	0.005258147
0.8344	0.00332033
0.8346	0.003219817
0.8348	0.001816802
0.835	0.001428988
0.8352	0.000527374
0.8354	-0.001728069
0.8356	-0.002280372
0.8358	-0.003351203
0.836	-0.00435708
0.8362	-0.004631541
0.8364	-0.005169773
0.8366	-0.006228463
0.8368	-0.005353851
0.837	-0.004778551
0.8372	-0.006465945
0.8374	-0.006431425
0.8376	-0.006217575
0.8378	-0.007926433
0.838	-0.008321162
0.8382	-0.008303124
0.8384	-0.009008081
0.8386	-0.008630015
0.8388	-0.009618825
0.839	-0.01069391
0.8392	-0.01068474
0.8394	-0.009367838
0.8396	-0.009188681
0.8398	-0.008874577
0.84	-0.007114445
0.8402	-0.008183223
0.8404	-0.009744928
0.8406	-0.01014336
0.8408	-0.01136833
0.841	-0.01182533
0.8412	-0.01070454
0.8414	-0.00968786
0.8416	-0.01023641
0.8418	-0.01097451
0.842	-0.01188111
0.8422	-0.01123611
0.8424	-0.01018305
0.8426	-0.009237135
0.8428	-0.00882029
0.843	-0.009123567
0.8432	-0.009308848
0.8434	-0.006838803
0.8436	-0.004710043
0.8438	-0.003613147
0.844	-0.003507137
0.8442	-0.003124581
0.8444	-0.001756866
0.8446	-0.001686536
0.8448	-0.001611502
0.845	-0.0009219564
0.8452	-0.0002886301
0.8454	0.0003095807
0.8456	0.001396485
0.8458	0.001606509
0.846	0.002035689
0.8462	0.003327618
0.8464	0.00412666
0.8466	0.004273774
0.8468	0.005683309
0.847	0.005585776
0.8472	0.007256164
0.8474	0.008049442
0.8476	0.008718471
0.8478	0.009958113
0.848	0.01065599
0.8482	0.01241
0.8484	0.01253559
0.8486	0.01189121
0.8488	0.0132287
0.849	0.0139368
0.8492	0.01383959
0.8494	0.01458043
0.8496	0.01534718
0.8498	0.01339133
0.85	0.01196868
0.8502	0.01073001
0.8504	0.01116069
0.8506	0.01030124
0.8508	0.01001377
0.851	0.01098862
0.8512	0.00972068
0.8514	0.01091583
0.8516	0.01274175
0.8518	0.01433275
0.852	0.01421808
0.8522	0.01365832
0.8524	0.01199776
0.8526	0.01224912
0.8528	0.0135098
0.853	0.01126662
0.8532	0.00986336
0.8534	0.009457242
0.8536	0.008433968
0.8538	0.007454915
0.854	0.007066839
0.8542	0.005696571
0.8544	0.005134787
0.8546	0.003688044
0.8548	0.001862929
0.855	0.0001424674
0.8552	-0.001918031
0.8554	-0.002243797
0.8556	-0.002463873
0.8558	-0.0009700032
0.856	-0.0007858133
0.8562	-0.001233425
0.8564	-0.003521457
0.8566	-0.004797557
0.8568	-0.005621538
0.857	-0.005902683
0.8572	-0.007258717
0.8574	-0.008045667
0.8576	-0.009734514
0.8578	-0.01042618
0.858	-0.01109401
0.8582	-0.01175434
0.8584	-0.009904396
0.8586	-0.01053289
0.8588	-0.01207779
0.859	-0.01265623
0.8592	-0.01377217
0.8594	-0.01517032
0.8596	-0.0147688
0.8598	-0.01403008
0.86	-0.01298309
0.8602	-0.01345086
0.8604	-0.01532947
0.8606	-0.01398985
0.8608	-0.01294601
0.861	-0.01178696
0.8612	-0.01243753
0.8614	-0.01290299
0.8616	-0.01192575
0.8618	-0.01042221
0.862	-0.01047512
0.8622	-0.01165315
0.8624	-0.01148769
0.8626	-0.009492354
0.8628	-0.009195235
0.863	-0.009737536
0.8632	-0.009197637
0.8634	-0.007583066
0.8636	-0.006657574
0.8638	-0.004872541
0.864	-0.004315744
0.8642	-0.003385835
0.8644	-0.003933376
0.8646	-0.004520117
0.8648	-0.002123012
0.865	0.0001198721
0.8652	-0.0002034233
0.8654	-0.0008696128
0.8656	-0.0001694448
0.8658	0.001732339
0.866	0.00305389
0.8662	0.00481989
0.8664	0.005683635
0.8666	0.005992984
0.8668	0.005097002
0.867	0.005079677
0.8672	0.005987753
0.8674	0.006430437
0.8676	0.006611538
0.8678	0.007207862
0.868	0.007064521
0.8682	0.006741815
0.8684	0.00775381
0.8686	0.009220958
0.8688	0.01114235
0.869	0.01074766
0.8692	0.0115826
0.8694	0.0133234
0.8696	0.01272688
0.8698	0.01294537
0.87	0.01215263
0.8702	0.01202823
0.8704	0.01282759
0.8706	0.01256189
0.8708	0.01196606
0.871	0.01097412
0.8712	0.01094591
0.8714	0.0124885
0.8716	0.0127925
0.8718	0.01242784
0.872	0.01295205
0.8722	0.01322477
0.8724	0.01147933
0.8726	0.01117642
0.8728	0.01019957
0.873	0.00841702
0.8732	0.007678769
0.8734	0.006791459
0.8736	0.005408674
0.8738	0.004517042
0.874	0.004447634
0.8742	0.005012058
0.8744	0.006029246
0.8746	0.003486722
0.8748	0.002194575
0.875	0.00184696
0.8752	0.001012309
0.8754	-0.0004298126
0.8756	-0.0009755266
0.8758	0.000373294
0.876	-0.0006291086
0.8762	-0.001169574
0.8764	-0.001932114
0.8766	-0.002737028
0.8768	-0.003457952
0.877	-0.005037874
0.8772	-0.005723628
0.8774	-0.007664036
0.8776	-0.009757473
0.8778	-0.01006739
0.878	-0.01055523
0.8782	-0.009905318
0.8784	-0.01097867
0.8786	-0.01194073
0.8788	-0.01067134
0.879	-0.009537756
0.8792	-0.01039308
0.8794	-0.01168799
0.8796	-0.01046191
0.8798	-0.01130221
0.88	-0.01058797
0.8802	-0.01107441
0.8804	-0.01265077
0.8806	-0.01408385
0.8808	-0.01355628
0.881	-0.01243442
0.8812	-0.01159822
0.8814	-0.01169121
0.8816	-0.0123137
0.8818	-0.01137702
0.882	-0.01100179
0.8822	-0.01068014
0.8824	-0.0109315
0.8826	-0.01158957
0.8828	-0.01224692
0.883	-0.01088752
0.8832	-0.00915583
0.8834	-0.008404193
0.8836	-0.00786793
0.8838	-0.008074042
0.884	-0.00779091
0.8842	-0.007130926
0.8844	-0.006826198
0.8846	-0.007797543
0.8848	-0.005875379
0.885	-0.00396727
0.8852	-0.004676484
0.8854	-0.004146297
0.8856	-0.002622519
0.8858	-0.003754412
0.886	-0.002811888
0.8862	-0.0007600763
0.8864	-1.561523e-5
0.8866	0.003301328
0.8868	0.006246133
0.887	0.006854959
0.8872	0.005672041
0.8874	0.005289829
0.8876	0.005323723
0.8878	0.006710685
0.888	0.009059791
0.8882	0.009143852
0.8884	0.008824838
0.8886	0.009198192
0.8888	0.01001422
0.889	0.009663217
0.8892	0.008839841
0.8894	0.009978271
0.8896	0.01016624
0.8898	0.01020757
0.89	0.01010556
0.8902	0.009058772
0.8904	0.01034115
0.8906	0.01102758
0.8908	0.01068338
0.891	0.01057295
0.8912	0.01017732
0.8914	0.01238376
0.8916	0.01357647
0.8918	0.01254903
0.892	0.01168122
0.8922	0.01104248
0.8924	0.01112724
0.8926	0.01146563
0.8928	0.01282873
0.893	0.01152771
0.8932	0.008984922
0.8934	0.009171488
0.8936	0.01025259
0.8938	0.008653026
0.894	0.007039767
0.8942	0.006873293
0.8944	0.005179408
0.8946	0.003019489
0.8948	0.002694725
0.895	0.002358234
0.8952	0.002439143
0.8954	0.00235589
0.8956	0.001821879
0.8958	-0.000452239
0.896	-0.002157477
0.8962	-0.002615753
0.8964	-0.003454784
0.8966	-0.004518688
0.8968	-0.005632398
0.897	-0.004485675
0.8972	-0.005407583
0.8974	-0.007036263
0.8976	-0.008220186
0.8978	-0.008730873
0.898	-0.01017697
0.8982	-0.0119784
0.8984	-0.01106332
0.8986	-0.01069484
0.8988	-0.01085578
0.899	-0.0123408
0.8992	-0.0121552
0.8994	-0.0127135
0.8996	-0.01258615
0.8998	-0.01301665
0.9	-0.01376147
0.9002	-0.0135836
0.9004	-0.01475788
0.9006	-0.01238583
0.9008	-0.01083492
0.901	-0.01148591
0.9012	-0.01199156
0.9014	-0.01190417
0.9016	-0.01339933
0.9018	-0.01201393
0.902	-0.01011512
0.9022	-0.009891201
0.9024	-0.008896993
0.9026	-0.008999525
0.9028	-0.009515411
0.903	-0.00935334
0.9032	-0.009473182
0.9034	-0.008273003
0.9036	-0.006137191
0.9038	-0.005876877
0.904	-0.006613343
0.9042	-0.006379504
0.9044	-0.005252889
0.9046	-0.003558805
0.9048	-0.002277023
0.905	-0.001749994
0.9052	0.000193982
0.9054	0.001838144
0.9056	0.001882647
0.9058	0.001899647
0.906	0.0008383203
0.9062	0.001266065
0.9064	0.003367391
0.9066	0.004702729
0.9068	0.004928869
0.907	0.007497797
0.9072	0.008347806
0.9074	0.00792664
0.9076	0.009560796
0.9078	0.01006628
0.908	0.009555139
0.9082	0.01047388
0.9084	0.01145236
0.9086	0.01177492
0.9088	0.01245344
0.909	0.0121912
0.9092	0.01278815
0.9094	0.01185793
0.9096	0.01224366
0.9098	0.01253847
0.91	0.01157138
0.9102	0.01407894
0.9104	0.01408982
0.9106	0.01414872
0.9108	0.01329311
0.911	0.01179189
0.9112	0.01088207
0.9114	0.01019651
0.9116	0.0111932
0.9118	0.01414686
0.912	0.01360577
0.9122	0.01218326
0.9124	0.01320354
0.9126	0.0137172
0.9128	0.01249693
0.913	0.009745108
0.9132	0.009630693
0.9134	0.008028358
0.9136	0.008724776
0.9138	0.009056914
0.914	0.006830015
0.9142	0.005335983
0.9144	0.00524867
0.9146	0.005259444
0.9148	0.002882034
0.915	0.001737838
0.9152	0.0007017637
0.9154	-0.0004297202
0.9156	-0.001724847
0.9158	-0.002588639
0.916	-0.004372255
0.9162	-0.003663822
0.9164	-0.004681995
0.9166	-0.007436605
0.9168	-0.009458203
0.917	-0.008406949
0.9172	-0.007812617
0.9174	-0.007326857
0.9176	-0.005334813
0.9178	-0.005522715
0.918	-0.00555551
0.9182	-0.006786135
0.9184	-0.008266618
0.9186	-0.007861619
0.9188	-0.008337555
0.919	-0.01014223
0.9192	-0.009831647
0.9194	-0.011203
0.9196	-0.01194808
0.9198	-0.01298497
0.92	-0.01506863
0.9202	-0.01376374
0.9204	-0.01352583
0.9206	-0.01223619
0.9208	-0.01214661
0.921	-0.01102387
0.9212	-0.01037511
0.9214	-0.01221343
0.9216	-0.01172569
0.9218	-0.0113677
0.922	-0.01194951
0.9222	-0.01089871
0.9224	-0.008409997
0.9226	-0.008767422
0.9228	-0.009399876
0.923	-0.006177826
0.9232	-0.004976715
0.9234	-0.004775757
0.9236	-0.003220916
0.9238	-0.003555826
0.924	-0.003462953
0.9242	-0.002610032
0.9244	-0.001709481
0.9246	-0.002981549
0.9248	-0.001547198
0.925	-0.0007815899
0.9252	-0.0007845866
0.9254	0.0001179777
0.9256	0.000237953
0.9258	0.002644017
0.926	0.003712747
0.9262	0.003450923
0.9264	0.003227978
0.9266	0.003793693
0.9268	0.00507796
0.927	0.005771494
0.9272	0.004174186
0.9274	0.004734137
0.9276	0.005753515
0.9278	0.005421913
0.928	0.006662986
0.9282	0.006410331
0.9284	0.006865184
0.9286	0.008984593
0.9288	0.009815161
0.929	0.009957103
0.9292	0.0111548
0.9294	0.01175352
0.9296	0.01081159
0.9298	0.0100512
0.93	0.01133264
0.9302	0.01070671
0.9304	0.01176538
0.9306	0.01260116
0.9308	0.01250562
0.931	0.01287048
0.9312	0.01225855
0.9314	0.0138759
0.9316	0.01389811
0.9318	0.01370551
0.932	0.01502965
0.9322	0.01525759
0.9324	0.01311643
0.9326	0.01149322
0.9328	0.01085113
0.933	0.01007466
0.9332	0.008095786
0.9334	0.00819416
0.9336	0.007718625
0.9338	0.006640807
0.934	0.004478876
0.9342	0.00292383
0.9344	0.002193685
0.9346	0.0004290868
0.9348	-0.0007345471
0.935	-0.001416679
0.9352	-0.0005668905
0.9354	-0.0002282784
0.9356	-0.001297855
0.9358	-0.002006547
0.936	-0.002213314
0.9362	-0.003032607
0.9364	-0.003252254
0.9366	-0.003067039
0.9368	-0.003888257
0.937	-0.005707438
0.9372	-0.006171061
0.9374	-0.008951622
0.9376	-0.01077268
0.9378	-0.009674221
0.938	-0.01056079
0.9382	-0.0131584
0.9384	-0.0140967
0.9386	-0.01349886
0.9388	-0.01244888
0.939	-0.01101411
0.9392	-0.01158208
0.9394	-0.01310683
0.9396	-0.01322546
0.9398	-0.01154745
0.94	-0.009992763
0.9402	-0.009107511
0.9404	-0.009568877
0.9406	-0.009533501
0.9408	-0.01010479
0.941	-0.01087385
0.9412	-0.0111588
0.9414	-0.00871262
0.9416	-0.00768273
0.9418	-0.008161855
0.942	-0.009078998
0.9422	-0.009366194
0.9424	-0.01030792
0.9426	-0.010944
0.9428	-0.01133318
0.943	-0.01081818
0.9432	-0.009090247
0.9434	-0.008613444
0.9436	-0.008157954
0.9438	-0.007982304
0.944	-0.007334171
0.9442	-0.005808592
0.9444	-0.004659297
0.9446	-0.005609442
0.9448	-0.004900383
0.945	-0.003774079
0.9452	-0.003142311
0.9454	-0.002774151
0.9456	-0.002370419
0.9458	-0.0006034815
0.946	-5.483938e-5
0.9462	4.479509e-5
0.9464	0.00159869
0.9466	0.002657974
0.9468	0.003980624
0.947	0.004474652
0.9472	0.006001395
0.9474	0.00794975
0.9476	0.008005792
0.9478	0.0097179
0.948	0.0111993
0.9482	0.01172903
0.9484	0.01085518
0.9486	0.01131626
0.9488	0.01310382
0.949	0.01190832
0.9492	0.01102866
0.9494	0.01178243
0.9496	0.01265254
0.9498	0.01315589
0.95	0.01477045
0.9502	0.01568692
0.9504	0.01568819
0.9506	0.01559978
0.9508	0.01494996
0.951	0.01510629
0.9512	0.01570456
0.9514	0.01627935
0.9516	0.01523861
0.9518	0.0143229
0.952	0.01334623
0.9522	0.01263817
0.9524	0.01191113
0.9526	0.01160615
0.9528	0.01296446
0.953	0.01222747
0.9532	0.01127974
0.9534	0.01064483
0.9536	0.01047769
0.9538	0.009722504
0.954	0.007999822
0.9542	0.007941807
0.9544	0.007251983
0.9546	0.007852461
0.9548	0.006253066
0.955	0.004012749
0.9552	0.004267291
0.9554	0.003841705
0.9556	0.002206091
0.9558	-0.0001349026
0.956	-0.001997346
0.9562	-0.0031637
0.9564	-0.005126102
0.9566	-0.005113989
0.9568	-0.006237125
0.957	-0.007943985
0.9572	-0.007795269
0.9574	-0.008257778
0.9576	-0.01096747
0.9578	-0.01198111
0.958	-0.01189653
0.9582	-0.01300392
0.9584	-0.01295555
0.9586	-0.01254728
0.9588	-0.01257976
0.959	-0.01146363
0.9592	-0.01190011
0.9594	-0.01235392
0.9596	-0.01148435
0.9598	-0.01148245
0.96	-0.0116955
0.9602	-0.01254875
0.9604	-0.01428002
0.9606	-0.01485238
0.9608	-0.01527537
0.961	-0.01579062
0.9612	-0.01531604
0.9614	-0.01496233
0.9616	-0.01506661
0.9618	-0.01463242
0.962	-0.01535139
0.9622	-0.01483949
0.9624	-0.01188307
0.9626	-0.01282771
0.9628	-0.0133127
0.963	-0.01315555
0.9632	-0.01158668
0.9634	-0.0116542
0.9636	-0.01146275
0.9638	-0.009728078
0.964	-0.00981664
0.9642	-0.008582182
0.9644	-0.006860414
0.9646	-0.005743676
0.9648	-0.00464896
0.965	-0.003654075
0.9652	-0.001991108
0.9654	-0.0003101502
0.9656	0.0008083946
0.9658	0.001459833
0.966	0.001091598
0.9662	0.001156025
0.9664	0.0009917279
0.9666	0.001302257
0.9668	0.002549581
0.967	0.005173199
0.9672	0.005826353
0.9674	0.00603348
0.9676	0.006542719
0.9678	0.00678452
0.968	0.007502338
0.9682	0.008669927
0.9684	0.008480026
0.9686	0.008800856
0.9688	0.01057411
0.969	0.01161149
0.9692	0.01118342
0.9694	0.01191505
0.9696	0.01266435
0.9698	0.01360929
0.97	0.01278404
0.9702	0.0139749
0.9704	0.01500192
0.9706	0.01477474
0.9708	0.01558429
0.971	0.01531365
0.9712	0.01253339
0.9714	0.01173138
0.9716	0.01286014
0.9718	0.01229428
0.972	0.012736
0.9722	0.01328442
0.9724	0.01256146
0.9726	0.01199346
0.9728	0.01074159
0.973	0.00963352
0.9732	0.008954798
0.9734	0.009975514
0.9736	0.00982411
0.9738	0.007794886
0.974	0.00640791
0.9742	0.004955804
0.9744	0.004394575
0.9746	0.004272395
0.9748	0.003505585
0.975	0.00341333
0.9752	0.003028291
0.9754	0.001518214
0.9756	0.0002776364
0.9758	0.001188599
0.976	0.0003314991
0.9762	-0.001029528
0.9764	-0.001545032
0.9766	-0.002950359
0.9768	-0.002449085
0.977	-0.003330348
0.9772	-0.004232867
0.9774	-0.003630291
0.9776	-0.005197442
0.9778	-0.005783942
0.978	-0.007699145
0.9782	-0.009680483
0.9784	-0.01007686
0.9786	-0.009869836
0.9788	-0.009834819
0.979	-0.01127502
0.9792	-0.01148381
0.9794	-0.0121133
0.9796	-0.01291131
0.9798	-0.01405764
0.98	-0.01396117
0.9802	-0.01334059
0.9804	-0.01310991
0.9806	-0.01485858
0.9808	-0.01570461
0.981	-0.01478742
0.9812	-0.01443605
0.9814	-0.01299962
0.9816	-0.01226345
0.9818	-0.01141537
0.982	-0.01067051
0.9822	-0.01067502
0.9824	-0.01050535
0.9826	-0.0118318
0.9828	-0.01050969
0.983	-0.009216268
0.9832	-0.008554418
0.9834	-0.008922718
0.9836	-0.007569795
0.9838	-0.006274866
0.984	-0.007147643
0.9842	-0.00547327
0.9844	-0.004322427
0.9846	-0.004102905
0.9848	-0.002632044
0.985	-0.001388271
0.9852	0.0006339802
0.9854	0.0007330981
0.9856	0.00052593
0.9858	0.002380969
0.986	0.003702506
0.9862	0.005246335
0.9864	0.00445644
0.9866	0.004013014
0.9868	0.004312173
0.987	0.005223754
0.9872	0.004870848
0.9874	0.007159021
0.9876	0.009199044
0.9878	0.01004402
0.988	0.01163849
0.9882	0.0123046
0.9884	0.01368535
0.9886	0.01453044
0.9888	0.01355891
0.989	0.01297796
0.9892	0.01224091
0.9894	0.01272086
0.9896	0.01425928
0.9898	0.01511749
0.99	0.01373892
0.9902	0.01418823
0.9904	0.01517132
0.9906	0.01466738
0.9908	0.01393033
0.991	0.01367507
0.9912	0.01338538
0.9914	0.01365645
0.9916	0.01229499
0.9918	0.01153918
0.992	0.01065814
0.9922	0.01001032
0.9924	0.008795893
0.9926	0.008784424
0.9928	0.01036521
0.993	0.01075577
0.9932	0.01074956
0.9934	0.0103297
0.9936	0.008858895
0.9938	0.008295971
0.994	0.00829957
0.9942	0.00696375
0.9944	0.005881206
0.9946	0.004436252
0.9948	0.004056082
0.995	0.003489199
0.9952	0.003210467
0.9954	0.001787844
0.9956	0.0007134324
0.9958	0.0008529016
0.996	0.0002648024
0.9962	-0.0006656083
0.9964	-0.001276103
0.9966	-0.002840486
0.9968	-0.006381531
0.997	-0.007511993
0.9972	-0.008006831
0.9974	-0.009471761
0.9976	-0.00872631
0.9978	-0.009505243
0.998	-0.01117989
0.9982	-0.01135383
0.9984	-0.01239966
0.9986	-0.01281227
0.9988	-0.01417655
0.999	-0.01439331
0.9992	-0.01438187
0.9994	-0.01487669
0.9996	-0.01435994
0.9998	-0.01372944
1	-0.01433085
1.0002	-0.01379851
1.0004	-0.01369731
1.0006	-0.01412484
1.0008	-0.01287
1.001	-0.01267263
1.0012	-0.01159382
1.0014	-0.01037577
1.0016	-0.0102368
1.0018	-0.01005721
1.002	-0.01219019
1.0022	-0.01360162
1.0024	-0.01211182
1.0026	-0.01091226
1.0028	-0.01151309
1.003	-0.01179145
1.0032	-0.0114317
1.0034	-0.00970762
1.0036	-0.008087704
1.0038	-0.009677584
1.004	-0.009635845
1.0042	-0.008714582
1.0044	-0.008604271
1.0046	-0.008607729
1.0048	-0.006447454
1.005	-0.003642013
1.0052	-0.003374105
1.0054	-0.002180311
1.0056	-0.001075318
1.0058	-0.001754566
1.006	-0.000588981
1.0062	0.001091803
1.0064	0.003114996
1.0066	0.004830232
1.0068	0.007118472
1.007	0.008482263
1.0072	0.006616697
1.0074	0.007806523
1.0076	0.007278859
1.0078	0.007446131
1.008	0.008542102
1.0082	0.01139477
1.0084	0.0128276
1.0086	0.01115297
1.0088	0.01052099
1.009	0.01110762
1.0092	0.01363959
1.0094	0.01388907
1.0096	0.01313044
1.0098	0.01242241
1.01	0.01325713
1.0102	0.01453637
1.0104	0.01461978
1.0106	0.01283575
1.0108	0.01147408
1.011	0.01164252
1.0112	0.01274973
1.0114	0.0141218
1.0116	0.01474702
1.0118	0.01398594
1.012	0.01392692
1.0122	0.01378853
1.0124	0.01420904
1.0126	0.0134958
1.0128	0.01192161
1.013	0.0126479
1.0132	0.01100184
1.0134	0.006927353
1.0136	0.007006434
1.0138	0.006102065
1.014	0.004176405
1.0142	0.004309531
1.0144	0.004173227
1.0146	0.004466739
1.0148	0.004075373
1.015	0.003464159
1.0152	0.004991225
1.0154	0.003416903
1.0156	0.001095478
1.0158	-0.0005873465
1.016	-0.00142683
1.0162	-0.00171183
1.0164	-0.002649678
1.0166	-0.001659236
1.0168	-0.002013764
1.017	-0.003582432
1.0172	-0.006376354
1.0174	-0.007213309
1.0176	-0.007070873
1.0178	-0.007137277
1.018	-0.007605403
1.0182	-0.01017873
1.0184	-0.01129585
1.0186	-0.01074238
1.0188	-0.01045898
1.019	-0.01136866
1.0192	-0.01263004
1.0194	-0.01310604
1.0196	-0.01295728
1.0198	-0.01415071
1.02	-0.01448308
1.0202	-0.01310954
1.0204	-0.01253719
1.0206	-0.01232986
1.0208	-0.01293191
1.021	-0.01263009
1.0212	-0.01097714
1.0214	-0.01095673
1.0216	-0.01144705
1.0218	-0.01141177
1.022	-0.01126598
1.0222	-0.01126094
1.0224	-0.01088956
1.0226	-0.01042099
1.0228	-0.009386262
1.023	-0.008716442
1.0232	-0.007702785
1.0234	-0.008290398
1.0236	-0.008926162
1.0238	-0.008444901
1.024	-0.00604579
1.0242	-0.004341442
1.0244	-0.003112033
1.0246	-0.003512713
1.0248	-0.004467303
1.025	-0.004976388
1.0252	-0.003021364
1.0254	-0.002132412
1.0256	-0.001727675
1.0258	-0.0003971439
1.026	0.00110111
1.0262	0.002347359
1.0264	0.00114354
1.0266	0.002310026
1.0268	0.004375879
1.027	0.005388192
1.0272	0.006338383
1.0274	0.0072513
1.0276	0.008231335
1.0278	0.008007481
1.028	0.008414377
1.0282	0.01031338
1.0284	0.01233724
1.0286	0.01269814
1.0288	0.01144826
1.029	0.01146293
1.0292	0.01200408
1.0294	0.01091248
1.0296	0.01124448
1.0298	0.01227209
1.03	0.0127605
1.0302	0.01283058
1.0304	0.01318694
1.0306	0.01304162
1.0308	0.01426766
1.031	0.01457467
1.0312	0.01261594
1.0314	0.0123843
1.0316	0.01416735
1.0318	0.01223726
1.032	0.01120234
1.0322	0.01170174
1.0324	0.01249418
1.0326	0.01109099
1.0328	0.009811253
1.033	0.009074735
1.0332	0.008560675
1.0334	0.008839467
1.0336	0.00710907
1.0338	0.00578223
1.034	0.004552515
1.0342	0.004668945
1.0344	0.005129193
1.0346	0.004302722
1.0348	0.004421908
1.035	0.003150604
1.0352	0.00173448
1.0354	0.001012924
1.0356	-0.0007591348
1.0358	-0.001185903
1.036	-0.002062293
1.0362	-0.002251868
1.0364	-0.002220829
1.0366	-0.003337604
1.0368	-0.004126623
1.037	-0.004954437
1.0372	-0.004616458
1.0374	-0.004526681
1.0376	-0.005746804
1.0378	-0.007235238
1.038	-0.008480618
1.0382	-0.007691441
1.0384	-0.008068854
1.0386	-0.008450453
1.0388	-0.008476919
1.039	-0.009071505
1.0392	-0.01017013
1.0394	-0.01062762
1.0396	-0.01170662
1.0398	-0.01182078
1.04	-0.01205199
1.0402	-0.01323875
1.0404	-0.01433856
1.0406	-0.01345916
1.0408	-0.01315336
1.041	-0.0135056
1.0412	-0.01458349
1.0414	-0.01540582
1.0416	-0.0144442
1.0418	-0.01246779
1.042	-0.01196994
1.0422	-0.009695395
1.0424	-0.01043128
1.0426	-0.01074441
1.0428	-0.009969867
1.043	-0.008539246
1.0432	-0.007925983
1.0434	-0.00777469
1.0436	-0.007316004
1.0438	-0.006795855
1.044	-0.00413381
1.0442	-0.004608544
1.0444	-0.006259281
1.0446	-0.004979807
1.0448	-0.005223428
1.045	-0.005400438
1.0452	-0.005200619
1.0454	-0.001937862
1.0456	0.0001371321
1.0458	0.001562255
1.046	0.002180683
1.0462	0.003600566
1.0464	0.00451751
1.0466	0.004990338
1.0468	0.004883274
1.047	0.004569895
1.0472	0.00462331
1.0474	0.005468362
1.0476	0.007195449
1.0478	0.007993915
1.048	0.008627275
1.0482	0.00732789
1.0484	0.007220547
1.0486	0.008990007
1.0488	0.009885583
1.049	0.01026113
1.0492	0.009634091
1.0494	0.007896265
1.0496	0.009308499
1.0498	0.01010251
1.05	0.009184405
1.0502	0.0106674
1.0504	0.01097319
1.0506	0.01201512
1.0508	0.0120188
1.051	0.0104572
1.0512	0.01050178
1.0514	0.01163936
1.0516	0.01230306
1.0518	0.01152712
1.052	0.01264266
1.0522	0.01344003
1.0524	0.01166469
1.0526	0.01100799
1.0528	0.01126899
1.053	0.01058014
1.0532	0.008868871
1.0534	0.008241693
1.0536	0.00866764
1.0538	0.008432122
1.054	0.008071036
1.0542	0.009843469
1.0544	0.007026121
1.0546	0.004325078
1.0548	0.003500153
1.055	0.004324394
1.0552	0.005019615
1.0554	0.005067561
1.0556	0.00360068
1.0558	0.001457692
1.056	0.001031875
1.0562	-0.0009611397
1.0564	-0.0004452577
1.0566	-0.00203079
1.0568	-0.002928872
1.057	-0.004097524
1.0572	-0.005227772
1.0574	-0.004753732
1.0576	-0.00479243
1.0578	-0.007830868
1.058	-0.00891963
1.0582	-0.009308005
1.0584	-0.01094745
1.0586	-0.0120766
1.0588	-0.01167848
1.059	-0.01028344
1.0592	-0.01055901
1.0594	-0.01005802
1.0596	-0.01056361
1.0598	-0.01347221
1.06	-0.01459537
1.0602	-0.01337296
1.0604	-0.01334184
1.0606	-0.01458311
1.0608	-0.01392042
1.061	-0.01328495
1.0612	-0.0136791
1.0614	-0.01426219
1.0616	-0.01350497
1.0618	-0.01302759
1.062	-0.01296901
1.0622	-0.01400373
1.0624	-0.01374299
1.0626	-0.01300447
1.0628	-0.01075174
1.063	-0.008065638
1.0632	-0.008362353
1.0634	-0.008225465
1.0636	-0.007232851
1.0638	-0.008672093
1.064	-0.008848974
1.0642	-0.01010202
1.0644	-0.009316116
1.0646	-0.007393288
1.0648	-0.00698013
1.065	-0.007585051
1.0652	-0.00676819
1.0654	-0.004204333
1.0656	-0.002585956
1.0658	-0.0001119182
1.066	0.002001342
1.0662	0.004195426
1.0664	0.004169267
1.0666	0.004530069
1.0668	0.006043157
1.067	0.008419601
1.0672	0.009864418
1.0674	0.01068199
1.0676	0.01199069
1.0678	0.01281174
1.068	0.01291464
1.0682	0.01305518
1.0684	0.01249538
1.0686	0.01403066
1.0688	0.01302971
1.069	0.01280802
1.0692	0.01302586
1.0694	0.01199132
1.0696	0.01320754
1.0698	0.01334432
1.07	0.01281523
1.0702	0.01281588
1.0704	0.01185778
1.0706	0.01255945
1.0708	0.01283492
1.071	0.01183228
1.0712	0.01277302
1.0714	0.01226793
1.0716	0.01167672
1.0718	0.01084368
1.072	0.00972486
1.0722	0.00944002
1.0724	0.009592867
1.0726	0.008022639
1.0728	0.007023375
1.073	0.007530388
1.0732	0.006005295
1.0734	0.005185764
1.0736	0.006239383
1.0738	0.006507306
1.074	0.004559316
1.0742	0.003804207
1.0744	0.002937285
1.0746	0.001248724
1.0748	0.001036075
1.075	0.001016677
1.0752	0.0008467452
1.0754	0.0007578376
1.0756	0.0003491271
1.0758	-0.00024101
1.076	-0.00165378
1.0762	-0.002672739
1.0764	-0.003023604
1.0766	-0.004647144
1.0768	-0.005483874
1.077	-0.006432255
1.0772	-0.006619573
1.0774	-0.008229412
1.0776	-0.00845141
1.0778	-0.009009272
1.078	-0.009081244
1.0782	-0.00877842
1.0784	-0.01029507
1.0786	-0.01147871
1.0788	-0.01196245
1.079	-0.01009216
1.0792	-0.008976465
1.0794	-0.009532917
1.0796	-0.009307423
1.0798	-0.01047422
1.08	-0.01190554
1.0802	-0.01252692
1.0804	-0.01200876
1.0806	-0.01181976
1.0808	-0.01093003
1.081	-0.01113538
1.0812	-0.01261054
1.0814	-0.01277243
1.0816	-0.01242485
1.0818	-0.01133458
1.082	-0.01051312
1.0822	-0.01104
1.0824	-0.01233525
1.0826	-0.01326691
1.0828	-0.01136422
1.083	-0.01059353
1.0832	-0.009701352
1.0834	-0.009145128
1.0836	-0.008443673
1.0838	-0.009257076
1.084	-0.009208959
1.0842	-0.007430028
1.0844	-0.007713678
1.0846	-0.008506048
1.0848	-0.008898212
1.085	-0.008202215
1.0852	-0.006697827
1.0854	-0.004203617
1.0856	-0.004777042
1.0858	-0.004208955
1.086	-0.001801301
1.0862	-0.001279727
1.0864	-0.0001793289
1.0866	0.0006389058
1.0868	0.001331537
1.087	0.003461739
1.0872	0.005425938
1.0874	0.005978928
1.0876	0.006986422
1.0878	0.008536235
1.088	0.007123684
1.0882	0.006911068
1.0884	0.008965331
1.0886	0.009956823
1.0888	0.0101579
1.089	0.01037498
1.0892	0.009911906
1.0894	0.01101233
1.0896	0.01142652
1.0898	0.01196065
1.09	0.01102222
1.0902	0.01129349
1.0904	0.01213723
1.0906	0.01183139
1.0908	0.01286134
1.091	0.01355279
1.0912	0.01424065
1.0914	0.01331183
1.0916	0.01431447
1.0918	0.01585063
1.092	0.01580772
1.0922	0.0151711
1.0924	0.01334779
1.0926	0.01164489
1.0928	0.01086462
1.093	0.009888813
1.0932	0.009643821
1.0934	0.009257693
1.0936	0.009128651
1.0938	0.007689244
1.094	0.00743245
1.0942	0.006453356
1.0944	0.004496304
1.0946	0.003529401
1.0948	0.003148525
1.095	0.001568112
1.0952	0.0001542908
1.0954	0.001902489
1.0956	0.001854324
1.0958	-0.0002016286
1.096	-0.0009646892
1.0962	-0.001275553
1.0964	-0.001808516
1.0966	-0.00270692
1.0968	-0.004530002
1.097	-0.005467975
1.0972	-0.005908536
1.0974	-0.007299835
1.0976	-0.005701603
1.0978	-0.005865086
1.098	-0.00675186
1.0982	-0.006862
1.0984	-0.007625195
1.0986	-0.006851371
1.0988	-0.007299467
1.099	-0.005590368
1.0992	-0.006181469
1.0994	-0.007224059
1.0996	-0.008561192
1.0998	-0.008858548
1.1	-0.009454416
1.1002	-0.00948645
1.1004	-0.01026815
1.1006	-0.0113996
1.1008	-0.011577
1.101	-0.01360771
1.1012	-0.01415021
1.1014	-0.01372169
1.1016	-0.01312536
1.1018	-0.01297575
1.102	-0.01266267
1.1022	-0.01240959
1.1024	-0.01328277
1.1026	-0.013983
1.1028	-0.01337716
1.103	-0.01241435
1.1032	-0.01194223
1.1034	-0.0103279
1.1036	-0.00974441
1.1038	-0.008956698
1.104	-0.007907492
1.1042	-0.007637482
1.1044	-0.007794687
1.1046	-0.006642504
1.1048	-0.004127978
1.105	-0.001178855
1.1052	-0.00225448
1.1054	-0.002763839
1.1056	-0.000989037
1.1058	-0.0004525628
1.106	-7.053337e-5
1.1062	0.002944282
1.1064	0.00577347
1.1066	0.007162515
1.1068	0.007302464
1.107	0.00864266
1.1072	0.0112071
1.1074	0.009419085
1.1076	0.008665859
1.1078	0.01032402
1.108	0.01104441
1.1082	0.01024607
1.1084	0.009803805
1.1086	0.01258729
1.1088	0.01366616
1.109	0.01428648
1.1092	0.01446314
1.1094	0.01586699
1.1096	0.01533171
1.1098	0.01427472
1.11	0.01416117
1.1102	0.01531351
1.1104	0.01616789
1.1106	0.01669811
1.1108	0.01730287
1.111	0.01608089
1.1112	0.01437764
1.1114	0.01211575
1.1116	0.01352812
1.1118	0.01347941
1.112	0.01248456
1.1122	0.01246878
1.1124	0.01284514
1.1126	0.01248421
1.1128	0.01239997
1.113	0.01214502
1.1132	0.01142223
1.1134	0.01084835
1.1136	0.009079318
1.1138	0.008306101
1.114	0.006604953
1.1142	0.00436124
1.1144	0.003319362
1.1146	0.002797842
1.1148	0.002212663
1.115	0.001521216
1.1152	0.0006250335
1.1154	-0.001843113
1.1156	-0.002836879
1.1158	-0.004087466
1.116	-0.00544005
1.1162	-0.005796376
1.1164	-0.006034365
1.1166	-0.006881171
1.1168	-0.006924027
1.117	-0.009306735
1.1172	-0.01101223
1.1174	-0.01080815
1.1176	-0.01106183
1.1178	-0.01113033
1.118	-0.01235796
1.1182	-0.01250095
1.1184	-0.01087554
1.1186	-0.01097971
1.1188	-0.01224562
1.119	-0.01274303
1.1192	-0.01268475
1.1194	-0.01231837
1.1196	-0.01248489
1.1198	-0.01369229
1.12	-0.0131275
1.1202	-0.01268805
1.1204	-0.01211835
1.1206	-0.01149866
1.1208	-0.01122324
1.121	-0.01271951
1.1212	-0.01374182
1.1214	-0.01411903
1.1216	-0.01365553
1.1218	-0.01335113
1.122	-0.0136852
1.1222	-0.01342568
1.1224	-0.01231128
1.1226	-0.01229307
1.1228	-0.01208846
1.123	-0.0108988
1.1232	-0.01102209
1.1234	-0.01065338
1.1236	-0.007915869
1.1238	-0.007958188
1.124	-0.007532186
1.1242	-0.005923606
1.1244	-0.006050822
1.1246	-0.005010208
1.1248	-0.003201337
1.125	-0.003146309
1.1252	-0.003332177
1.1254	-0.003616805
1.1256	-0.00321954
1.1258	-0.002842631
1.126	-0.00161722
1.1262	-0.001835511
1.1264	7.245677e-5
1.1266	0.001483075
1.1268	0.00243069
1.127	0.004420354
1.1272	0.005161461
1.1274	0.005301658
1.1276	0.006008368
1.1278	0.005705432
1.128	0.005647623
1.1282	0.005095658
1.1284	0.006203569
1.1286	0.007962928
1.1288	0.00955764
1.129	0.008909268
1.1292	0.008449397
1.1294	0.00945618
1.1296	0.01149306
1.1298	0.01366327
1.13	0.01375607
1.1302	0.0143726
1.1304	0.01488131
1.1306	0.01453354
1.1308	0.01629142
1.131	0.01567494
1.1312	0.01530359
1.1314	0.01657906
1.1316	0.01566974
1.1318	0.01717069
1.132	0.01771401
1.1322	0.01726968
1.1324	0.01692891
1.1326	0.01604627
1.1328	0.01510837
1.133	0.01364467
1.1332	0.01276041
1.1334	0.01209435
1.1336	0.01117963
1.1338	0.01045931
1.134	0.01047034
1.1342	0.008943301
1.1344	0.007382507
1.1346	0.007201169
1.1348	0.006840152
1.135	0.006337316
1.1352	0.005597895
1.1354	0.00565081
1.1356	0.003305362
1.1358	-1.449018e-5
1.136	-0.0009990518
1.1362	-0.002146355
1.1364	-0.001480936
1.1366	-0.002424009
1.1368	-0.002079633
1.137	-0.005192503
1.1372	-0.007792105
1.1374	-0.008944484
1.1376	-0.008850966
1.1378	-0.01001703
1.138	-0.01186606
1.1382	-0.01294501
1.1384	-0.01495348
1.1386	-0.01618873
1.1388	-0.01516417
1.139	-0.01428823
1.1392	-0.0139365
1.1394	-0.01355573
1.1396	-0.01602298
1.1398	-0.01572431
1.14	-0.01669391
1.1402	-0.01675077
1.1404	-0.0156855
1.1406	-0.01686154
1.1408	-0.01925321
1.141	-0.01906529
1.1412	-0.01923787
1.1414	-0.0181297
1.1416	-0.01665372
1.1418	-0.01563951
1.142	-0.01483696
1.1422	-0.01311286
1.1424	-0.01277789
1.1426	-0.01330986
1.1428	-0.01163509
1.143	-0.01102976
1.1432	-0.01072754
1.1434	-0.01000387
1.1436	-0.009068848
1.1438	-0.007272261
1.144	-0.005624444
1.1442	-0.00406766
1.1444	-0.001491261
1.1446	0.0002500849
1.1448	-0.001344833
1.145	-0.002547985
1.1452	-0.003091294
1.1454	-0.001311309
1.1456	-6.06835e-5
1.1458	-5.713012e-5
1.146	0.002605819
1.1462	0.005232936
1.1464	0.005805919
1.1466	0.00769652
1.1468	0.00817883
1.147	0.006173164
1.1472	0.00513776
1.1474	0.005466419
1.1476	0.008044905
1.1478	0.007716277
1.148	0.007502158
1.1482	0.009850521
1.1484	0.01287488
1.1486	0.01369648
1.1488	0.01298836
1.149	0.01321531
1.1492	0.01355662
1.1494	0.01326294
1.1496	0.01329585
1.1498	0.01316118
1.15	0.01295596
1.1502	0.01209051
1.1504	0.01106397
1.1506	0.01171648
1.1508	0.01292817
1.151	0.01382278
1.1512	0.0133497
1.1514	0.0145005
1.1516	0.01272915
1.1518	0.01260766
1.152	0.01372948
1.1522	0.01425269
1.1524	0.01399955
1.1526	0.01206611
1.1528	0.01098969
1.153	0.0102631
1.1532	0.009492166
1.1534	0.009760868
1.1536	0.008564536
1.1538	0.008251507
1.154	0.007332833
1.1542	0.005947481
1.1544	0.004118051
1.1546	0.005404995
1.1548	0.005516556
1.155	0.003495056
1.1552	0.001001827
1.1554	-0.001028045
1.1556	-0.00244754
1.1558	-0.002421313
1.156	-0.003232093
1.1562	-0.002268797
1.1564	-0.001724775
1.1566	-0.002281363
1.1568	-0.003757872
1.157	-0.00472258
1.1572	-0.005045023
1.1574	-0.006286005
1.1576	-0.008323099
1.1578	-0.008284634
1.158	-0.00819806
1.1582	-0.008563499
1.1584	-0.008223967
1.1586	-0.009540197
1.1588	-0.009592137
1.159	-0.0104255
1.1592	-0.01355938
1.1594	-0.0133487
1.1596	-0.01194908
1.1598	-0.01131764
1.16	-0.01176618
1.1602	-0.01360635
1.1604	-0.01484669
1.1606	-0.01560446
1.1608	-0.01561444
1.161	-0.01307024
1.1612	-0.01093168
1.1614	-0.01090599
1.1616	-0.01105111
1.1618	-0.01143995
1.162	-0.01141325
1.1622	-0.01070635
1.1624	-0.01105969
1.1626	-0.01135211
1.1628	-0.01288575
1.163	-0.01218986
1.1632	-0.01102702
1.1634	-0.01039233
1.1636	-0.01104704
1.1638	-0.01002645
1.164	-0.00784455
1.1642	-0.006302253
1.1644	-0.00463409
1.1646	-0.004377478
1.1648	-0.005006059
1.165	-0.004623496
1.1652	-0.003855583
1.1654	-0.002845194
1.1656	-0.001875308
1.1658	-0.0005991703
1.166	0.000808514
1.1662	0.003668334
1.1664	0.004672453
1.1666	0.004408705
1.1668	0.006054638
1.167	0.00789518
1.1672	0.009089645
1.1674	0.009031758
1.1676	0.009258599
1.1678	0.007883429
1.168	0.008935457
1.1682	0.009310776
1.1684	0.008906703
1.1686	0.01101262
1.1688	0.01135097
1.169	0.01048151
1.1692	0.01103203
1.1694	0.01238659
1.1696	0.01261773
1.1698	0.01188781
1.17	0.01173536
1.1702	0.01188699
1.1704	0.01073679
1.1706	0.009706331
1.1708	0.008853806
1.171	0.009071097
1.1712	0.009454997
1.1714	0.009643311
1.1716	0.00946535
1.1718	0.01088225
1.172	0.01229814
1.1722	0.01231966
1.1724	0.01039217
1.1726	0.009411968
1.1728	0.009951887
1.173	0.009970397
1.1732	0.009761531
1.1734	0.009917652
1.1736	0.008762868
1.1738	0.009216511
1.174	0.009808417
1.1742	0.008819688
1.1744	0.008024569
1.1746	0.00701827
1.1748	0.00442986
1.175	0.003858426
1.1752	0.003611893
1.1754	0.002131277
1.1756	0.001975678
1.1758	0.001652208
1.176	0.001892612
1.1762	0.0007438487
1.1764	-0.001700812
1.1766	-0.002977484
1.1768	-0.004698776
1.177	-0.003824045
1.1772	-0.003799534
1.1774	-0.007441153
1.1776	-0.008012506
1.1778	-0.008556158
1.178	-0.009631647
1.1782	-0.01011416
1.1784	-0.01079489
1.1786	-0.01093052
1.1788	-0.01100792
1.179	-0.01145589
1.1792	-0.01107351
1.1794	-0.01146207
1.1796	-0.01059043
1.1798	-0.01125943
1.18	-0.01209689
1.1802	-0.0124096
1.1804	-0.01332844
1.1806	-0.01178242
1.1808	-0.01194968
1.181	-0.01321671
1.1812	-0.01273729
1.1814	-0.01353273
1.1816	-0.0143896
1.1818	-0.01323728
1.182	-0.0127792
1.1822	-0.0107673
1.1824	-0.01040257
1.1826	-0.01050646
1.1828	-0.01122058
1.183	-0.01045249
1.1832	-0.007881734
1.1834	-0.007036561
1.1836	-0.007281415
1.1838	-0.006305932
1.184	-0.004907393
1.1842	-0.004266119
1.1844	-0.003300305
1.1846	-0.003311898
1.1848	-0.003128951
1.185	-0.001739753
1.1852	-0.00195568
1.1854	-0.001962413
1.1856	-0.001866693
1.1858	-0.001359552
1.186	-0.0006657249
1.1862	0.0007937749
1.1864	0.00276076
1.1866	0.003633803
1.1868	0.003693219
1.187	0.005278658
1.1872	0.006015148
1.1874	0.00566067
1.1876	0.006560222
1.1878	0.006823547
1.188	0.006900656
1.1882	0.006879651
1.1884	0.007015403
1.1886	0.008804597
1.1888	0.01067376
1.189	0.01067843
1.1892	0.01094491
1.1894	0.01123532
1.1896	0.01045914
1.1898	0.01025387
1.19	0.009657977
1.1902	0.009102915
1.1904	0.008897495
1.1906	0.009255395
1.1908	0.01103121
1.191	0.01180168
1.1912	0.0113216
1.1914	0.01157736
1.1916	0.01137093
1.1918	0.01095804
1.192	0.01167745
1.1922	0.01314222
1.1924	0.01250352
1.1926	0.01073318
1.1928	0.01102782
1.193	0.01135908
1.1932	0.01158108
1.1934	0.01101194
1.1936	0.007651173
1.1938	0.004929461
1.194	0.006158708
1.1942	0.005988523
1.1944	0.005232729
1.1946	0.003538559
1.1948	0.001803649
1.195	0.001465457
1.1952	0.0005478949
1.1954	0.001417289
1.1956	0.001050342
1.1958	0.001107782
1.196	1.515863e-5
1.1962	-0.001000073
1.1964	-0.0007700236
1.1966	-0.001630783
1.1968	-0.002931979
1.197	-0.004084949
1.1972	-0.003274928
1.1974	-0.003779257
1.1976	-0.005935623
1.1978	-0.007677244
1.198	-0.007770379
1.1982	-0.007947915
1.1984	-0.009180771
1.1986	-0.01070269
1.1988	-0.01090689
1.199	-0.00949139
1.1992	-0.008117261
1.1994	-0.008545263
1.1996	-0.01017444
1.1998	-0.012333
1.2	-0.01281528
1.2002	-0.01112043
1.2004	-0.01138685
1.2006	-0.01017028
1.2008	-0.01034563
1.201	-0.01100374
1.2012	-0.01078539
1.2014	-0.01002955
1.2016	-0.008846631
1.2018	-0.01083751
1.202	-0.01120073
1.2022	-0.01094678
1.2024	-0.01056002
1.2026	-0.00970971
1.2028	-0.009198271
1.203	-0.007461474
1.2032	-0.007076118
1.2034	-0.006070086
1.2036	-0.00576841
1.2038	-0.004873853
1.204	-0.004470339
1.2042	-0.002908018
1.2044	-0.001442547
1.2046	-0.001637341
1.2048	-0.0004248401
1.205	-0.0006935751
1.2052	-0.0009458582
1.2054	-0.001086665
1.2056	-0.0006749174
1.2058	0.00131908
1.206	0.0007285618
1.2062	-7.972137e-5
1.2064	-0.001303888
1.2066	-0.002023493
1.2068	0.00024513
1.207	0.001874336
1.2072	0.002219877
1.2074	0.001825638
1.2076	0.002009843
1.2078	0.004594946
1.208	0.006992321
1.2082	0.007800239
1.2084	0.007027072
1.2086	0.008180639
1.2088	0.008243773
1.209	0.009775998
1.2092	0.01082217
1.2094	0.01024912
1.2096	0.01101557
1.2098	0.01017725
1.21	0.009829469
1.2102	0.01096029
1.2104	0.01166551
1.2106	0.01198539
1.2108	0.0115861
1.211	0.01155293
1.2112	0.01295133
1.2114	0.01262763
1.2116	0.0106535
1.2118	0.01105586
1.212	0.01128304
1.2122	0.01092387
1.2124	0.0117861
1.2126	0.01114736
1.2128	0.009643843
1.213	0.00817932
1.2132	0.008031792
1.2134	0.007065854
1.2136	0.00578884
1.2138	0.005688093
1.214	0.005253347
1.2142	0.004689417
1.2144	0.004949723
1.2146	0.004805542
1.2148	0.003617024
1.215	0.003118879
1.2152	0.001569601
1.2154	0.0005566204
1.2156	0.0008858838
1.2158	-0.00198319
1.216	-0.002732074
1.2162	-0.003544573
1.2164	-0.004887308
1.2166	-0.005205176
1.2168	-0.006314301
1.217	-0.007621136
1.2172	-0.006791295
1.2174	-0.006071337
1.2176	-0.006492782
1.2178	-0.007970093
1.218	-0.008498655
1.2182	-0.007971422
1.2184	-0.007997146
1.2186	-0.007950681
1.2188	-0.00950143
1.219	-0.01019244
1.2192	-0.01138969
1.2194	-0.01123846
1.2196	-0.01102583
1.2198	-0.01190139
1.22	-0.01360577
1.2202	-0.01356993
1.2204	-0.01396682
1.2206	-0.0140505
1.2208	-0.01389348
1.221	-0.01461278
1.2212	-0.01517036
1.2214	-0.0139269
1.2216	-0.01293385
1.2218	-0.01331025
1.222	-0.01194817
1.2222	-0.01172958
1.2224	-0.01165701
1.2226	-0.01221459
1.2228	-0.01208522
1.223	-0.009921934
1.2232	-0.008700435
1.2234	-0.008917968
1.2236	-0.01011606
1.2238	-0.008032681
1.224	-0.004730094
1.2242	-0.003272115
1.2244	-0.002323952
1.2246	-0.003563175
1.2248	-0.003428188
1.225	-0.002798152
1.2252	-0.002381616
1.2254	-0.0006195201
1.2256	-0.0006925946
1.2258	0.001377434
1.226	0.002633907
1.2262	0.003769291
1.2264	0.004065978
1.2266	0.006455897
1.2268	0.00832474
1.227	0.007155106
1.2272	0.006717999
1.2274	0.008353608
1.2276	0.009856588
1.2278	0.009730434
1.228	0.008175196
1.2282	0.009228559
1.2284	0.009917088
1.2286	0.009755981
1.2288	0.01040914
1.229	0.01119045
1.2292	0.01163534
1.2294	0.01231852
1.2296	0.01377154
1.2298	0.0152052
1.23	0.01493433
1.2302	0.01396511
1.2304	0.01531092
1.2306	0.01612505
1.2308	0.01564799
1.231	0.01473974
1.2312	0.01300696
1.2314	0.01386486
1.2316	0.01472031
1.2318	0.01441106
1.232	0.01403339
1.2322	0.01417321
1.2324	0.01327511
1.2326	0.012799
1.2328	0.01284568
1.233	0.01338663
1.2332	0.01427771
1.2334	0.01310373
1.2336	0.01204222
1.2338	0.01062411
1.234	0.008988086
1.2342	0.008848703
1.2344	0.007764243
1.2346	0.008223688
1.2348	0.008306557
1.235	0.008512382
1.2352	0.008450115
1.2354	0.007903859
1.2356	0.006875102
1.2358	0.006585458
1.236	0.002720476
1.2362	0.001993258
1.2364	0.0007253374
1.2366	-0.001328962
1.2368	-0.002531998
1.237	-0.005390019
1.2372	-0.006993331
1.2374	-0.008357305
1.2376	-0.008516832
1.2378	-0.01061097
1.238	-0.01211383
1.2382	-0.01412345
1.2384	-0.01515379
1.2386	-0.01554164
1.2388	-0.01744322
1.239	-0.01783714
1.2392	-0.01820763
1.2394	-0.0180852
1.2396	-0.01924849
1.2398	-0.01905382
1.24	-0.01762755
1.2402	-0.01738228
1.2404	-0.01837787
1.2406	-0.01853302
1.2408	-0.01864514
1.241	-0.01802721
1.2412	-0.01664583
1.2414	-0.01664899
1.2416	-0.01631175
1.2418	-0.01626829
1.242	-0.01578373
1.2422	-0.01438806
1.2424	-0.01340778
1.2426	-0.01177482
1.2428	-0.01078318
1.243	-0.01049796
1.2432	-0.0107601
1.2434	-0.009960284
1.2436	-0.009254308
1.2438	-0.008293813
1.244	-0.005711951
1.2442	-0.005766338
1.2444	-0.004180428
1.2446	-0.002152863
1.2448	-0.0008485551
1.245	0.0003435451
1.2452	0.0005008948
1.2454	0.0009921335
1.2456	0.001836996
1.2458	0.002928349
1.246	0.004600896
1.2462	0.006401207
1.2464	0.007211921
1.2466	0.007004797
1.2468	0.008684796
1.247	0.008158782
1.2472	0.00861496
1.2474	0.007680002
1.2476	0.008112974
1.2478	0.008402174
1.248	0.009333211
1.2482	0.01025017
1.2484	0.009897908
1.2486	0.0101491
1.2488	0.01034324
1.249	0.0114851
1.2492	0.009698963
1.2494	0.009778674
1.2496	0.01123963
1.2498	0.01217064
1.25	0.01173979
1.2502	0.0128612
1.2504	0.01439526
1.2506	0.01192876
1.2508	0.01179622
1.251	0.01261132
1.2512	0.01275453
1.2514	0.01435752
1.2516	0.01364277
1.2518	0.01192531
1.252	0.01116536
1.2522	0.00997058
1.2524	0.009649806
1.2526	0.01136874
1.2528	0.01072594
1.253	0.008861284
1.2532	0.009038279
1.2534	0.008890754
1.2536	0.007707475
1.2538	0.007133128
1.254	0.005522359
1.2542	0.003566935
1.2544	0.00276545
1.2546	0.002473105
1.2548	0.001183124
1.255	0.001320238
1.2552	0.0002978736
1.2554	-0.00174589
1.2556	-0.002990243
1.2558	-0.004661418
1.256	-0.005815749
1.2562	-0.004093736
1.2564	-0.003315016
1.2566	-0.004204671
1.2568	-0.003815298
1.257	-0.004357234
1.2572	-0.005860296
1.2574	-0.005843427
1.2576	-0.008630282
1.2578	-0.00926311
1.258	-0.009111444
1.2582	-0.009562635
1.2584	-0.009768892
1.2586	-0.01047415
1.2588	-0.009777529
1.259	-0.009991096
1.2592	-0.01038106
1.2594	-0.01027596
1.2596	-0.009260649
1.2598	-0.008952449
1.26	-0.009452785
1.2602	-0.01211358
1.2604	-0.01198843
1.2606	-0.01114431
1.2608	-0.0108252
1.261	-0.0121845
1.2612	-0.01266976
1.2614	-0.01126074
1.2616	-0.01172396
1.2618	-0.01067754
1.262	-0.0104498
1.2622	-0.00977121
1.2624	-0.01019229
1.2626	-0.009893862
1.2628	-0.009810457
1.263	-0.01019336
1.2632	-0.009885273
1.2634	-0.01030686
1.2636	-0.01162125
1.2638	-0.01168553
1.264	-0.01120654
1.2642	-0.01141899
1.2644	-0.009514736
1.2646	-0.006703138
1.2648	-0.004872378
1.265	-0.004474873
1.2652	-0.003015955
1.2654	-0.001770866
1.2656	-0.0002990652
1.2658	0.0003655359
1.266	0.001032354
1.2662	0.0008262745
1.2664	0.00231466
1.2666	0.003011842
1.2668	0.003603375
1.267	0.005367571
1.2672	0.007190756
1.2674	0.008343918
1.2676	0.0084111
1.2678	0.008254865
1.268	0.007818854
1.2682	0.009861183
1.2684	0.009834691
1.2686	0.01072632
1.2688	0.01190247
1.269	0.01212925
1.2692	0.01216781
1.2694	0.0129963
1.2696	0.01443086
1.2698	0.01610351
1.27	0.01565767
1.2702	0.01508127
1.2704	0.01539033
1.2706	0.01625751
1.2708	0.01622548
1.271	0.01557148
1.2712	0.01461415
1.2714	0.01467499
1.2716	0.01391686
1.2718	0.01308659
1.272	0.01370851
1.2722	0.01433212
1.2724	0.0131437
1.2726	0.0127922
1.2728	0.01224214
1.273	0.0112034
1.2732	0.008918922
1.2734	0.006543647
1.2736	0.006556436
1.2738	0.004937429
1.274	0.004619508
1.2742	0.00337389
1.2744	0.001980138
1.2746	0.0006433959
1.2748	0.001420718
1.275	0.0007316071
1.2752	0.0006724518
1.2754	-0.0004755366
1.2756	-0.001207538
