Source File Name:	Scan
Signal:	Time - Ref2 Voltage - Samples

Time	Time Signal
[ s ]	[ V ]
0	0.02396235
0.0002	0.02350305
0.0004	0.0254464
0.0006	0.02667895
0.0008	0.02681234
0.001	0.02586274
0.0012	0.02445242
0.0014	0.022528
0.0016	0.01954832
0.0018	0.01705341
0.002	0.01418588
0.0022	0.008791233
0.0024	0.004771552
0.0026	0.004258308
0.0028	0.003383804
0.003	0.001909039
0.0032	-0.0003739403
0.0034	-0.002588258
0.0036	-0.003032042
0.0038	-0.003609869
0.004	-0.006435619
0.0042	-0.006902846
0.0044	-0.007544918
0.0046	-0.01058441
0.0048	-0.01252125
0.005	-0.0126466
0.0052	-0.01318663
0.0054	-0.01373418
0.0056	-0.01465432
0.0058	-0.01652507
0.006	-0.0170964
0.0062	-0.01943628
0.0064	-0.02114884
0.0066	-0.02153878
0.0068	-0.02196216
0.007	-0.02251326
0.0072	-0.02398156
0.0074	-0.02523429
0.0076	-0.02710896
0.0078	-0.02766431
0.008	-0.02763695
0.0082	-0.02738707
0.0084	-0.02666062
0.0086	-0.02650438
0.0088	-0.02678056
0.009	-0.02693596
0.0092	-0.0254183
0.0094	-0.02408036
0.0096	-0.02447402
0.0098	-0.02529597
0.01	-0.02397136
0.0102	-0.02120247
0.0104	-0.02007389
0.0106	-0.01910265
0.0108	-0.01837739
0.011	-0.01683648
0.0112	-0.01548925
0.0114	-0.01679584
0.0116	-0.01586957
0.0118	-0.01431235
0.012	-0.01224739
0.0122	-0.01006867
0.0124	-0.007812929
0.0126	-0.006232204
0.0128	-0.004574012
0.013	-0.002661041
0.0132	-0.001273763
0.0134	0.0007283844
0.0136	0.0022884
0.0138	0.003815413
0.014	0.00481908
0.0142	0.005151727
0.0144	0.007349847
0.0146	0.00958351
0.0148	0.01208777
0.015	0.01477461
0.0152	0.01503835
0.0154	0.01684426
0.0156	0.01866168
0.0158	0.01932772
0.016	0.02000713
0.0162	0.01895385
0.0164	0.01911303
0.0166	0.02057356
0.0168	0.0216951
0.017	0.02246722
0.0172	0.02290325
0.0174	0.02265824
0.0176	0.02282592
0.0178	0.02500773
0.018	0.02676711
0.0182	0.02662629
0.0184	0.02676878
0.0186	0.02718759
0.0188	0.02460246
0.019	0.02459921
0.0192	0.02569854
0.0194	0.02537508
0.0196	0.02429515
0.0198	0.02240644
0.02	0.02125196
0.0202	0.02150281
0.0204	0.02239689
0.0206	0.02078669
0.0208	0.01979233
0.021	0.01907699
0.0212	0.01832426
0.0214	0.01836471
0.0216	0.01614187
0.0218	0.0128466
0.022	0.01110454
0.0222	0.009917975
0.0224	0.009426825
0.0226	0.008848241
0.0228	0.007848006
0.023	0.005144232
0.0232	0.001850797
0.0234	0.0006491682
0.0236	-0.0004615752
0.0238	-0.001235311
0.024	-0.00313472
0.0242	-0.00436716
0.0244	-0.005457431
0.0246	-0.006696249
0.0248	-0.008712396
0.025	-0.00989497
0.0252	-0.009992569
0.0254	-0.01134406
0.0256	-0.01271617
0.0258	-0.01314361
0.026	-0.0147734
0.0262	-0.01617417
0.0264	-0.01845518
0.0266	-0.02000905
0.0268	-0.019721
0.027	-0.01886609
0.0272	-0.01761486
0.0274	-0.01873307
0.0276	-0.02123565
0.0278	-0.02218749
0.028	-0.0235178
0.0282	-0.02389921
0.0284	-0.02505052
0.0286	-0.02380695
0.0288	-0.02394554
0.029	-0.02460419
0.0292	-0.02416666
0.0294	-0.02515501
0.0296	-0.02516262
0.0298	-0.02407553
0.03	-0.02170851
0.0302	-0.02137965
0.0304	-0.02109899
0.0306	-0.02106698
0.0308	-0.02104888
0.031	-0.01979523
0.0312	-0.02067885
0.0314	-0.02031021
0.0316	-0.01866396
0.0318	-0.01516978
0.032	-0.0135549
0.0322	-0.01206667
0.0324	-0.01046203
0.0326	-0.007943268
0.0328	-0.004812522
0.033	-0.002985142
0.0332	-0.001001839
0.0334	-0.0004465664
0.0336	0.0008540059
0.0338	0.0001478263
0.034	-0.0003186697
0.0342	0.001082605
0.0344	0.003159201
0.0346	0.005403072
0.0348	0.007327468
0.035	0.01007531
0.0352	0.01209323
0.0354	0.01170649
0.0356	0.01321509
0.0358	0.01376427
0.036	0.0122264
0.0362	0.01212637
0.0364	0.01416095
0.0366	0.01624228
0.0368	0.01769982
0.037	0.01817867
0.0372	0.0187077
0.0374	0.01817597
0.0376	0.01958077
0.0378	0.02181744
0.038	0.0235215
0.0382	0.02339911
0.0384	0.02318489
0.0386	0.02433012
0.0388	0.02622828
0.039	0.02532903
0.0392	0.02568367
0.0394	0.02658881
0.0396	0.02611284
0.0398	0.02629631
0.04	0.02686734
0.0402	0.02608233
0.0404	0.0238764
0.0406	0.02285481
0.0408	0.02184812
0.041	0.02172485
0.0412	0.01882158
0.0414	0.01712757
0.0416	0.01671246
0.0418	0.01491706
0.042	0.01358533
0.0422	0.01168965
0.0424	0.01100452
0.0426	0.01009242
0.0428	0.00827477
0.043	0.00610643
0.0432	0.003628928
0.0434	0.003157007
0.0436	0.0005075732
0.0438	-0.001999701
0.044	-0.001790191
0.0442	-0.002817137
0.0444	-0.004389885
0.0446	-0.006322414
0.0448	-0.008255788
0.045	-0.007885955
0.0452	-0.008224533
0.0454	-0.01184845
0.0456	-0.01577821
0.0458	-0.01705305
0.046	-0.01809192
0.0462	-0.01796823
0.0464	-0.01949167
0.0466	-0.01911028
0.0468	-0.02084083
0.047	-0.02206234
0.0472	-0.02129962
0.0474	-0.02218038
0.0476	-0.02450944
0.0478	-0.02652593
0.048	-0.02607907
0.0482	-0.02743675
0.0484	-0.02969242
0.0486	-0.03020771
0.0488	-0.02929954
0.049	-0.02814172
0.0492	-0.02791139
0.0494	-0.02710785
0.0496	-0.02431294
0.0498	-0.02244432
0.05	-0.02167613
0.0502	-0.02125483
0.0504	-0.02088885
0.0506	-0.0209291
0.0508	-0.01920933
0.051	-0.01761185
0.0512	-0.01708509
0.0514	-0.01582338
0.0516	-0.0139374
0.0518	-0.01255942
0.052	-0.01189274
0.0522	-0.009751502
0.0524	-0.006241941
0.0526	-0.006398802
0.0528	-0.00738246
0.053	-0.007014136
0.0532	-0.0065579
0.0534	-0.004602944
0.0536	-0.003296581
0.0538	-0.003172956
0.054	-0.001114546
0.0542	0.0005280342
0.0544	0.00244429
0.0546	0.00307434
0.0548	0.005228106
0.055	0.0076303
0.0552	0.008109421
0.0554	0.00944887
0.0556	0.01035896
0.0558	0.01110967
0.056	0.01184657
0.0562	0.0139031
0.0564	0.01420032
0.0566	0.01622111
0.0568	0.01807285
0.057	0.01941008
0.0572	0.02102838
0.0574	0.02165233
0.0576	0.02248205
0.0578	0.02357533
0.058	0.02456171
0.0582	0.02533873
0.0584	0.02438628
0.0586	0.02419907
0.0588	0.02430534
0.059	0.02447977
0.0592	0.02526254
0.0594	0.02406176
0.0596	0.02240587
0.0598	0.02286657
0.06	0.02278772
0.0602	0.02222275
0.0604	0.02195844
0.0606	0.02265841
0.0608	0.02341093
0.061	0.02186776
0.0612	0.019474
0.0614	0.01715829
0.0616	0.01575164
0.0618	0.0155776
0.062	0.01474065
0.0622	0.01172772
0.0624	0.0107075
0.0626	0.009927117
0.0628	0.007122764
0.063	0.005687355
0.0632	0.005259175
0.0634	0.00356767
0.0636	0.001819607
0.0638	0.001530144
0.064	-0.001547325
0.0642	-0.004749204
0.0644	-0.005407541
0.0646	-0.005929952
0.0648	-0.008015685
0.065	-0.01019344
0.0652	-0.01242492
0.0654	-0.01363244
0.0656	-0.01464338
0.0658	-0.01510434
0.066	-0.01750185
0.0662	-0.01926327
0.0664	-0.01869307
0.0666	-0.02079157
0.0668	-0.02091076
0.067	-0.02165328
0.0672	-0.02314859
0.0674	-0.02224493
0.0676	-0.02267752
0.0678	-0.02410836
0.068	-0.02462194
0.0682	-0.02618702
0.0684	-0.02557658
0.0686	-0.02565238
0.0688	-0.02613343
0.069	-0.02548095
0.0692	-0.0238625
0.0694	-0.02258477
0.0696	-0.02273055
0.0698	-0.0218679
0.07	-0.0219361
0.0702	-0.02112679
0.0704	-0.02083479
0.0706	-0.02088333
0.0708	-0.01899351
0.071	-0.01754717
0.0712	-0.01691271
0.0714	-0.01635952
0.0716	-0.01516323
0.0718	-0.01423561
0.072	-0.0129391
0.0722	-0.01200221
0.0724	-0.01164704
0.0726	-0.01141832
0.0728	-0.01012499
0.073	-0.005954158
0.0732	-0.004192216
0.0734	-0.001795947
0.0736	0.001558519
0.0738	0.004250619
0.074	0.005434858
0.0742	0.00624407
0.0744	0.008715197
0.0746	0.009605226
0.0748	0.01152799
0.075	0.01376297
0.0752	0.01354073
0.0754	0.01482532
0.0756	0.01538984
0.0758	0.01787388
0.076	0.0165601
0.0762	0.01716134
0.0764	0.01926976
0.0766	0.02055255
0.0768	0.02148995
0.077	0.0220992
0.0772	0.02273155
0.0774	0.02306285
0.0776	0.02421811
0.0778	0.02468524
0.078	0.0255935
0.0782	0.02535593
0.0784	0.02452637
0.0786	0.02615255
0.0788	0.02600024
0.079	0.02537533
0.0792	0.02341611
0.0794	0.02292373
0.0796	0.02366214
0.0798	0.02453865
0.08	0.0243089
0.0802	0.02225068
0.0804	0.02238677
0.0806	0.02182605
0.0808	0.02007847
0.081	0.01768024
0.0812	0.01622063
0.0814	0.01437778
0.0816	0.01322848
0.0818	0.01237817
0.082	0.01039266
0.0822	0.009241181
0.0824	0.009374624
0.0826	0.007309585
0.0828	0.002947269
0.083	0.00154527
0.0832	0.0003424181
0.0834	-0.002419663
0.0836	-0.004816991
0.0838	-0.006131912
0.084	-0.00806603
0.0842	-0.008777834
0.0844	-0.009841501
0.0846	-0.008888299
0.0848	-0.00933163
0.085	-0.01121559
0.0852	-0.01416407
0.0854	-0.01513348
0.0856	-0.01611374
0.0858	-0.01582781
0.086	-0.01541255
0.0862	-0.01856712
0.0864	-0.01847348
0.0866	-0.0188783
0.0868	-0.02012286
0.087	-0.02167643
0.0872	-0.02372853
0.0874	-0.02438956
0.0876	-0.02314794
0.0878	-0.02255662
0.088	-0.0232675
0.0882	-0.02367206
0.0884	-0.02268024
0.0886	-0.02332352
0.0888	-0.02429964
0.089	-0.02224102
0.0892	-0.02172683
0.0894	-0.02133414
0.0896	-0.02112305
0.0898	-0.02123461
0.09	-0.0212635
0.0902	-0.02156674
0.0904	-0.01998421
0.0906	-0.01821487
0.0908	-0.01678709
0.091	-0.01641
0.0912	-0.0160484
0.0914	-0.01614799
0.0916	-0.01515241
0.0918	-0.01292326
0.092	-0.01123595
0.0922	-0.00908396
0.0924	-0.007950052
0.0926	-0.006979601
0.0928	-0.005487094
0.093	-0.002595952
0.0932	-0.002313993
0.0934	-0.001115326
0.0936	0.0009589602
0.0938	0.004122819
0.094	0.006431283
0.0942	0.008350112
0.0944	0.01001782
0.0946	0.01068858
0.0948	0.01151126
0.095	0.01225892
0.0952	0.01328643
0.0954	0.01358943
0.0956	0.01434137
0.0958	0.01454097
0.096	0.01647473
0.0962	0.01828735
0.0964	0.01925014
0.0966	0.02097115
0.0968	0.02053312
0.097	0.0205343
0.0972	0.02260399
0.0974	0.02372744
0.0976	0.02410448
0.0978	0.02552396
0.098	0.02692263
0.0982	0.02829976
0.0984	0.02719982
0.0986	0.02736891
0.0988	0.02794123
0.099	0.02721685
0.0992	0.02675774
0.0994	0.0249199
0.0996	0.02284427
0.0998	0.0210631
0.1	0.01891253
0.1002	0.01674038
0.1004	0.01552305
0.1006	0.0148951
0.1008	0.01571054
0.101	0.01540329
0.1012	0.01503262
0.1014	0.01442646
0.1016	0.0127657
0.1018	0.01107903
0.102	0.01017048
0.1022	0.008717159
0.1024	0.008749649
0.1026	0.008077694
0.1028	0.007285899
0.103	0.005061759
0.1032	0.003159303
0.1034	0.000354466
0.1036	-0.002357081
0.1038	-0.003561789
0.104	-0.004924715
0.1042	-0.007664108
0.1044	-0.00962486
0.1046	-0.01072516
0.1048	-0.01274823
0.105	-0.01254456
0.1052	-0.01240482
0.1054	-0.01390126
0.1056	-0.01672062
0.1058	-0.01974978
0.106	-0.02027133
0.1062	-0.02137014
0.1064	-0.02209314
0.1066	-0.02246359
0.1068	-0.02324179
0.107	-0.02316382
0.1072	-0.02370973
0.1074	-0.02404369
0.1076	-0.02311287
0.1078	-0.02523875
0.108	-0.0267421
0.1082	-0.02600065
0.1084	-0.02587323
0.1086	-0.02534393
0.1088	-0.02566429
0.109	-0.02745732
0.1092	-0.02666889
0.1094	-0.02530463
0.1096	-0.02385976
0.1098	-0.02204683
0.11	-0.02058155
0.1102	-0.01995029
0.1104	-0.01958517
0.1106	-0.01809769
0.1108	-0.01560918
0.111	-0.01504541
0.1112	-0.01492574
0.1114	-0.01367757
0.1116	-0.01221475
0.1118	-0.01001723
0.112	-0.008722511
0.1122	-0.007433314
0.1124	-0.006768022
0.1126	-0.005792978
0.1128	-0.004846591
0.113	-0.00321935
0.1132	-0.001114164
0.1134	-0.0003614357
0.1136	0.0008796611
0.1138	0.003906479
0.114	0.004568246
0.1142	0.005882296
0.1144	0.007023024
0.1146	0.008573723
0.1148	0.009798546
0.115	0.01135127
0.1152	0.01213529
0.1154	0.01292795
0.1156	0.01570768
0.1158	0.01639985
0.116	0.01654852
0.1162	0.01857832
0.1164	0.02237617
0.1166	0.02428408
0.1168	0.02496764
0.117	0.02473167
0.1172	0.02427046
0.1174	0.02340616
0.1176	0.0234461
0.1178	0.02407178
0.118	0.02315843
0.1182	0.0243957
0.1184	0.02342035
0.1186	0.02294045
0.1188	0.02157056
0.119	0.02124585
0.1192	0.02006827
0.1194	0.02080503
0.1196	0.01958643
0.1198	0.01795256
0.12	0.01899211
0.1202	0.0179131
0.1204	0.01862217
0.1206	0.0193526
0.1208	0.01793187
0.121	0.01638532
0.1212	0.01677632
0.1214	0.01466837
0.1216	0.01268047
0.1218	0.01008839
0.122	0.008380359
0.1222	0.007564144
0.1224	0.004625288
0.1226	0.003056218
0.1228	0.003606837
0.123	0.003591357
0.1232	0.002147553
0.1234	-0.0006532745
0.1236	-0.002558169
0.1238	-0.004615503
0.124	-0.006437187
0.1242	-0.007454267
0.1244	-0.007505621
0.1246	-0.008608302
0.1248	-0.01045701
0.125	-0.01267261
0.1252	-0.01160983
0.1254	-0.01253588
0.1256	-0.01440699
0.1258	-0.01564235
0.126	-0.01534067
0.1262	-0.01633387
0.1264	-0.01687385
0.1266	-0.01689879
0.1268	-0.01809649
0.127	-0.01984982
0.1272	-0.02160748
0.1274	-0.02144913
0.1276	-0.02198092
0.1278	-0.02171373
0.128	-0.02242872
0.1282	-0.02195953
0.1284	-0.02333336
0.1286	-0.02570838
0.1288	-0.02720368
0.129	-0.02578161
0.1292	-0.02349169
0.1294	-0.02186104
0.1296	-0.02053769
0.1298	-0.02173551
0.13	-0.02018738
0.1302	-0.01855682
0.1304	-0.01802
0.1306	-0.01818666
0.1308	-0.01843128
0.131	-0.01800603
0.1312	-0.02008578
0.1314	-0.02282357
0.1316	-0.02472102
0.1318	-0.02662014
0.132	-0.02793494
0.1322	-0.02848105
0.1324	-0.02641374
0.1326	-0.0226502
0.1328	-0.02063619
0.133	-0.01860881
0.1332	-0.01552934
0.1334	-0.01229188
0.1336	-0.008288098
0.1338	-0.005390083
0.134	-0.002645975
0.1342	0.0003520696
0.1344	0.004055306
0.1346	0.007367557
0.1348	0.009127843
0.135	0.01325682
0.1352	0.01764519
0.1354	0.02101121
0.1356	0.02478189
0.1358	0.02631149
0.136	0.02820449
0.1362	0.03075946
0.1364	0.03422471
0.1366	0.03643719
0.1368	0.03801853
0.137	0.03712995
0.1372	0.03690556
0.1374	0.03580882
0.1376	0.03535479
0.1378	0.03844322
0.138	0.03971412
0.1382	0.03851289
0.1384	0.03957057
0.1386	0.04027949
0.1388	0.04048603
0.139	0.04008359
0.1392	0.03964674
0.1394	0.03615738
0.1396	0.03266757
0.1398	0.03153509
0.14	0.02983138
0.1402	0.02744753
0.1404	0.02371012
0.1406	0.02221925
0.1408	0.01910437
0.141	0.01552508
0.1412	0.01215111
0.1414	0.01061511
0.1416	0.01043578
0.1418	0.009123026
0.142	0.007073833
0.1422	0.005593252
0.1424	0.003369925
0.1426	0.0009228931
0.1428	-0.0006543417
0.143	-0.001131627
0.1432	-0.00169303
0.1434	-0.003574945
0.1436	-0.003494264
0.1438	-0.004444202
0.144	-0.007582065
0.1442	-0.01089895
0.1444	-0.01086332
0.1446	-0.01159042
0.1448	-0.01418595
0.145	-0.01421649
0.1452	-0.01519605
0.1454	-0.01478397
0.1456	-0.01414605
0.1458	-0.0163511
0.146	-0.01816156
0.1462	-0.01960697
0.1464	-0.02022929
0.1466	-0.02161177
0.1468	-0.02378297
0.147	-0.02376432
0.1472	-0.02308187
0.1474	-0.02234262
0.1476	-0.02344001
0.1478	-0.02517346
0.148	-0.02549485
0.1482	-0.02517235
0.1484	-0.02488912
0.1486	-0.02510936
0.1488	-0.02420105
0.149	-0.02458524
0.1492	-0.02484595
0.1494	-0.02472717
0.1496	-0.02320605
0.1498	-0.02116646
0.15	-0.02187595
0.1502	-0.02219622
0.1504	-0.02019158
0.1506	-0.01788958
0.1508	-0.01748225
0.151	-0.01675596
0.1512	-0.01643545
0.1514	-0.01679434
0.1516	-0.01568349
0.1518	-0.01485611
0.152	-0.01316845
0.1522	-0.01169787
0.1524	-0.00954534
0.1526	-0.008506319
0.1528	-0.006338603
0.153	-0.005296703
0.1532	-0.005342057
0.1534	-0.003831289
0.1536	-0.002058676
0.1538	0.000851468
0.154	0.002030188
0.1542	0.003240444
0.1544	0.005399507
0.1546	0.007107487
0.1548	0.006919997
0.155	0.007993355
0.1552	0.01005849
0.1554	0.01181317
0.1556	0.01292986
0.1558	0.01455534
0.156	0.01624962
0.1562	0.01724792
0.1564	0.02066029
0.1566	0.0211665
0.1568	0.02082691
0.157	0.02273628
0.1572	0.02339888
0.1574	0.0243477
0.1576	0.02399069
0.1578	0.02540074
0.158	0.02841187
0.1582	0.02855625
0.1584	0.02825234
0.1586	0.02776193
0.1588	0.02662491
0.159	0.0255884
0.1592	0.02615871
0.1594	0.02645775
0.1596	0.02568861
0.1598	0.02382783
0.16	0.02253869
0.1602	0.02144602
0.1604	0.01966749
0.1606	0.01752556
0.1608	0.01590776
0.161	0.01483688
0.1612	0.0136342
0.1614	0.01242937
0.1616	0.0111569
0.1618	0.0100374
0.162	0.007800365
0.1622	0.006492038
0.1624	0.005391548
0.1626	0.005237098
0.1628	0.003845734
0.163	0.001736487
0.1632	0.0007792316
0.1634	0.0007360192
0.1636	0.0001684349
0.1638	-0.00184153
0.164	-0.004798016
0.1642	-0.006258778
0.1644	-0.008456851
0.1646	-0.010735
0.1648	-0.01219239
0.165	-0.01309719
0.1652	-0.01431436
0.1654	-0.01345022
0.1656	-0.01457846
0.1658	-0.01613843
0.166	-0.01749681
0.1662	-0.01862652
0.1664	-0.01995519
0.1666	-0.02208158
0.1668	-0.02131367
0.167	-0.02262907
0.1672	-0.02407232
0.1674	-0.02341027
0.1676	-0.02274825
0.1678	-0.02155361
0.168	-0.0218998
0.1682	-0.02072159
0.1684	-0.02034794
0.1686	-0.02173949
0.1688	-0.02138607
0.169	-0.0214381
0.1692	-0.02176125
0.1694	-0.02146346
0.1696	-0.0210608
0.1698	-0.02129927
0.17	-0.02189095
0.1702	-0.02128017
0.1704	-0.0195541
0.1706	-0.01781506
0.1708	-0.01775735
0.171	-0.0169104
0.1712	-0.0162428
0.1714	-0.01502785
0.1716	-0.01314097
0.1718	-0.01025572
0.172	-0.009375676
0.1722	-0.007952326
0.1724	-0.005223216
0.1726	-0.004672225
0.1728	-0.003453935
0.173	-0.002812269
0.1732	-0.0009181676
0.1734	0.0008184941
0.1736	0.0008346146
0.1738	0.003352011
0.174	0.003662189
0.1742	0.002984005
0.1744	0.005430375
0.1746	0.007790357
0.1748	0.01019629
0.175	0.01220444
0.1752	0.01174698
0.1754	0.01119962
0.1756	0.01349633
0.1758	0.0162669
0.176	0.01885101
0.1762	0.01841643
0.1764	0.01847583
0.1766	0.01884723
0.1768	0.0181833
0.177	0.01780799
0.1772	0.01846039
0.1774	0.01955733
0.1776	0.01901769
0.1778	0.01916518
0.178	0.02049443
0.1782	0.02128136
0.1784	0.02265124
0.1786	0.02298423
0.1788	0.02223889
0.179	0.02182876
0.1792	0.02145988
0.1794	0.0225637
0.1796	0.02419481
0.1798	0.02281987
0.18	0.02108092
0.1802	0.02004153
0.1804	0.0198745
0.1806	0.0187441
0.1808	0.01644916
0.181	0.01698157
0.1812	0.0162546
0.1814	0.01509878
0.1816	0.01410275
0.1818	0.01314126
0.182	0.01298106
0.1822	0.01067845
0.1824	0.008288158
0.1826	0.007827494
0.1828	0.004523199
0.183	0.002653992
0.1832	-0.000553705
0.1834	-0.002512915
0.1836	-0.005363428
0.1838	-0.006819166
0.184	-0.006471391
0.1842	-0.006645048
0.1844	-0.008765263
0.1846	-0.009600029
0.1848	-0.009763969
0.185	-0.01157851
0.1852	-0.01205971
0.1854	-0.0117768
0.1856	-0.01453027
0.1858	-0.01517765
0.186	-0.01607942
0.1862	-0.01607756
0.1864	-0.01658637
0.1866	-0.01897964
0.1868	-0.02023107
0.187	-0.02030882
0.1872	-0.02044474
0.1874	-0.02132388
0.1876	-0.0223348
0.1878	-0.02425823
0.188	-0.02528319
0.1882	-0.02404751
0.1884	-0.02279297
0.1886	-0.02161878
0.1888	-0.02193167
0.189	-0.02229301
0.1892	-0.02145681
0.1894	-0.02122665
0.1896	-0.01935452
0.1898	-0.02028321
0.19	-0.02060149
0.1902	-0.01988309
0.1904	-0.01860878
0.1906	-0.01711456
0.1908	-0.0155384
0.191	-0.01442514
0.1912	-0.01442881
0.1914	-0.01372801
0.1916	-0.01187188
0.1918	-0.01003946
0.192	-0.007910482
0.1922	-0.006782383
0.1924	-0.005838502
0.1926	-0.004798159
0.1928	-0.004563326
0.193	-0.002855111
0.1932	-0.001541488
0.1934	0.001179668
0.1936	0.003906215
0.1938	0.004355461
0.194	0.003869258
0.1942	0.004878249
0.1944	0.00715109
0.1946	0.008672517
0.1948	0.009329818
0.195	0.01087907
0.1952	0.01112732
0.1954	0.01334344
0.1956	0.01417455
0.1958	0.01430082
0.196	0.01594696
0.1962	0.0164746
0.1964	0.01699316
0.1966	0.01858077
0.1968	0.0195032
0.197	0.0210155
0.1972	0.02234943
0.1974	0.02214043
0.1976	0.02197922
0.1978	0.02271745
0.198	0.02215551
0.1982	0.02155445
0.1984	0.02125931
0.1986	0.02075401
0.1988	0.02164019
0.199	0.02233669
0.1992	0.02173263
0.1994	0.02141059
0.1996	0.02132441
0.1998	0.02005835
0.2	0.02018514
0.2002	0.01885337
0.2004	0.01765007
0.2006	0.01739443
0.2008	0.01688023
0.201	0.01516435
0.2012	0.01377264
0.2014	0.01135558
0.2016	0.00983697
0.2018	0.009734723
0.202	0.008916731
0.2022	0.007145375
0.2024	0.006026493
0.2026	0.006161392
0.2028	0.004310881
0.203	0.002024409
0.2032	0.0003502961
0.2034	-0.0008303162
0.2036	-0.001135406
0.2038	-0.00321834
0.204	-0.003757999
0.2042	-0.004674309
0.2044	-0.006425119
0.2046	-0.007273979
0.2048	-0.00827962
0.205	-0.008726245
0.2052	-0.009871285
0.2054	-0.01161864
0.2056	-0.01187506
0.2058	-0.01275011
0.206	-0.01166098
0.2062	-0.01212795
0.2064	-0.01450648
0.2066	-0.0154289
0.2068	-0.01692124
0.207	-0.01886343
0.2072	-0.01995081
0.2074	-0.02177973
0.2076	-0.02299149
0.2078	-0.02179248
0.208	-0.02007751
0.2082	-0.02069601
0.2084	-0.02135042
0.2086	-0.02062095
0.2088	-0.02045438
0.209	-0.01942546
0.2092	-0.01786358
0.2094	-0.0190191
0.2096	-0.0192862
0.2098	-0.01729763
0.21	-0.01690805
0.2102	-0.01614911
0.2104	-0.01440317
0.2106	-0.0134108
0.2108	-0.01412698
0.211	-0.01362625
0.2112	-0.01252898
0.2114	-0.01107406
0.2116	-0.0105036
0.2118	-0.00995746
0.212	-0.008422461
0.2122	-0.007133973
0.2124	-0.004754825
0.2126	-0.005176956
0.2128	-0.005305913
0.213	-0.003502517
0.2132	-0.002797252
0.2134	-0.001870952
0.2136	0.0005911996
0.2138	0.002587508
0.214	0.003774546
0.2142	0.004832427
0.2144	0.006522588
0.2146	0.008577604
0.2148	0.00915345
0.215	0.009424998
0.2152	0.008659624
0.2154	0.009946633
0.2156	0.01211936
0.2158	0.01181149
0.216	0.01139294
0.2162	0.01296291
0.2164	0.01444945
0.2166	0.01553487
0.2168	0.01602563
0.217	0.01520975
0.2172	0.01536515
0.2174	0.01530693
0.2176	0.01543188
0.2178	0.0159369
0.218	0.0171678
0.2182	0.01818462
0.2184	0.01915468
0.2186	0.02096997
0.2188	0.02093766
0.219	0.02110966
0.2192	0.02060438
0.2194	0.02090625
0.2196	0.02040659
0.2198	0.02019387
0.22	0.01944573
0.2202	0.01855874
0.2204	0.01737436
0.2206	0.01604177
0.2208	0.01559358
0.221	0.01432928
0.2212	0.01458532
0.2214	0.01392701
0.2216	0.01150478
0.2218	0.01029081
0.222	0.009216267
0.2222	0.008379868
0.2224	0.00778336
0.2226	0.006236369
0.2228	0.003005251
0.223	0.00104923
0.2232	-8.640847e-5
0.2234	-0.002964747
0.2236	-0.003351299
0.2238	-0.004776176
0.224	-0.006062318
0.2242	-0.007392359
0.2244	-0.007351357
0.2246	-0.008857554
0.2248	-0.008841365
0.225	-0.009278785
0.2252	-0.01066719
0.2254	-0.01036544
0.2256	-0.01168098
0.2258	-0.01299783
0.226	-0.01441984
0.2262	-0.01509767
0.2264	-0.01600415
0.2266	-0.01711275
0.2268	-0.01765045
0.227	-0.01907905
0.2272	-0.0197257
0.2274	-0.02070536
0.2276	-0.02078873
0.2278	-0.02227644
0.228	-0.0220821
0.2282	-0.02179825
0.2284	-0.02163127
0.2286	-0.02177062
0.2288	-0.02195464
0.229	-0.02151234
0.2292	-0.02189264
0.2294	-0.02075024
0.2296	-0.02004184
0.2298	-0.01867855
0.23	-0.0170727
0.2302	-0.01476031
0.2304	-0.01379623
0.2306	-0.01393548
0.2308	-0.01259417
0.231	-0.01115827
0.2312	-0.01068785
0.2314	-0.009835009
0.2316	-0.009524148
0.2318	-0.009872172
0.232	-0.009379672
0.2322	-0.008715753
0.2324	-0.008020235
0.2326	-0.007373492
0.2328	-0.007092634
0.233	-0.005527527
0.2332	-0.004838551
0.2334	-0.001967279
0.2336	-0.0004411521
0.2338	6.076901e-5
0.234	0.001645324
0.2342	0.004260285
0.2344	0.006566298
0.2346	0.006737037
0.2348	0.007911628
0.235	0.009316077
0.2352	0.01132947
0.2354	0.01342167
0.2356	0.0144311
0.2358	0.01481676
0.236	0.01629207
0.2362	0.01838142
0.2364	0.01929359
0.2366	0.02102883
0.2368	0.02120211
0.237	0.02122556
0.2372	0.02248356
0.2374	0.02234787
0.2376	0.02290791
0.2378	0.02251067
0.238	0.0246914
0.2382	0.02665538
0.2384	0.02726207
0.2386	0.02509507
0.2388	0.02440655
0.239	0.02561978
0.2392	0.02380938
0.2394	0.0207123
0.2396	0.02005667
0.2398	0.01932856
0.24	0.01768837
0.2402	0.01619894
0.2404	0.0140658
0.2406	0.01348373
0.2408	0.01298724
0.241	0.01334759
0.2412	0.01325939
0.2414	0.01165822
0.2416	0.009504549
0.2418	0.007363795
0.242	0.006089253
0.2422	0.005376245
0.2424	0.004832569
0.2426	0.003549961
0.2428	0.003685631
0.243	0.001846102
0.2432	-0.001028132
0.2434	-0.002928201
0.2436	-0.003394035
0.2438	-0.004234226
0.244	-0.005302044
0.2442	-0.006830842
0.2444	-0.008127055
0.2446	-0.007923844
0.2448	-0.008675254
0.245	-0.009891341
0.2452	-0.01203936
0.2454	-0.01366711
0.2456	-0.014524
0.2458	-0.01602189
0.246	-0.01668891
0.2462	-0.01662288
0.2464	-0.01714061
0.2466	-0.01733102
0.2468	-0.01731594
0.247	-0.01804391
0.2472	-0.01998705
0.2474	-0.02138928
0.2476	-0.02105214
0.2478	-0.02089608
0.248	-0.02076661
0.2482	-0.02150321
0.2484	-0.02172792
0.2486	-0.02149422
0.2488	-0.02060275
0.249	-0.0188308
0.2492	-0.01797158
0.2494	-0.01874984
0.2496	-0.01845616
0.2498	-0.01818236
0.25	-0.01869082
0.2502	-0.01787799
0.2504	-0.01667394
0.2506	-0.01736401
0.2508	-0.01492957
0.251	-0.01287115
0.2512	-0.01262801
0.2514	-0.01168468
0.2516	-0.01205114
0.2518	-0.01120466
0.252	-0.008554332
0.2522	-0.00445219
0.2524	-0.002716224
0.2526	-0.001872197
0.2528	-0.00151396
0.253	-0.002307123
0.2532	-0.000201942
0.2534	0.002052602
0.2536	0.003132352
0.2538	0.002520849
0.254	0.002937475
0.2542	0.003839495
0.2544	0.00493861
0.2546	0.006217718
0.2548	0.004516537
0.255	0.006425009
0.2552	0.008315933
0.2554	0.007574909
0.2556	0.008380256
0.2558	0.009128231
0.256	0.01090263
0.2562	0.01208285
0.2564	0.01350212
0.2566	0.01487368
0.2568	0.01556438
0.257	0.01589036
0.2572	0.01637828
0.2574	0.01591827
0.2576	0.01654793
0.2578	0.01791109
0.258	0.01961929
0.2582	0.01881321
0.2584	0.01950077
0.2586	0.01993722
0.2588	0.02039328
0.259	0.02084002
0.2592	0.0189145
0.2594	0.0181111
0.2596	0.0166372
0.2598	0.01633997
0.26	0.01398022
0.2602	0.01270861
0.2604	0.01305495
0.2606	0.01195096
0.2608	0.01178653
0.261	0.01279818
0.2612	0.01370575
0.2614	0.0118744
0.2616	0.01043618
0.2618	0.009581715
0.262	0.007425138
0.2622	0.007829505
0.2624	0.006434545
0.2626	0.004247214
0.2628	0.003466605
0.263	0.003344476
0.2632	0.001769795
0.2634	6.853598e-5
0.2636	-0.001142574
0.2638	-0.002186522
0.264	-0.002337618
0.2642	-0.004101098
0.2644	-0.005580011
0.2646	-0.006391406
0.2648	-0.008858145
0.265	-0.009655711
0.2652	-0.01019301
0.2654	-0.009356336
0.2656	-0.01130579
0.2658	-0.01311222
0.266	-0.01417687
0.2662	-0.01426409
0.2664	-0.01288906
0.2666	-0.0136867
0.2668	-0.01458352
0.267	-0.01521768
0.2672	-0.01514857
0.2674	-0.01635927
0.2676	-0.01699125
0.2678	-0.01793454
0.268	-0.01858388
0.2682	-0.01852751
0.2684	-0.01896246
0.2686	-0.01974126
0.2688	-0.01915584
0.269	-0.01870753
0.2692	-0.01830076
0.2694	-0.01787826
0.2696	-0.01831239
0.2698	-0.01918263
0.27	-0.0185268
0.2702	-0.01862982
0.2704	-0.01715844
0.2706	-0.01457118
0.2708	-0.01458634
0.271	-0.01412243
0.2712	-0.0125834
0.2714	-0.010713
0.2716	-0.008362835
0.2718	-0.008269183
0.272	-0.007361955
0.2722	-0.004938028
0.2724	-0.00329941
0.2726	-0.00287113
0.2728	-0.002658268
0.273	-0.001049766
0.2732	0.0003375369
0.2734	0.001574203
0.2736	0.003306044
0.2738	0.0056844
0.274	0.007417453
0.2742	0.007421187
0.2744	0.007609401
0.2746	0.01051322
0.2748	0.01143603
0.275	0.01099595
0.2752	0.01235321
0.2754	0.01156498
0.2756	0.01233022
0.2758	0.01321535
0.276	0.01407695
0.2762	0.01423084
0.2764	0.01510151
0.2766	0.01567874
0.2768	0.01702701
0.277	0.01786613
0.2772	0.01702313
0.2774	0.01787438
0.2776	0.01870104
0.2778	0.0194604
0.278	0.01854203
0.2782	0.01790385
0.2784	0.01705723
0.2786	0.01874232
0.2788	0.02035498
0.279	0.02208786
0.2792	0.02279574
0.2794	0.02126345
0.2796	0.0199509
0.2798	0.01937228
0.28	0.01955804
0.2802	0.01893736
0.2804	0.01681033
0.2806	0.01562778
0.2808	0.01522854
0.281	0.01354769
0.2812	0.01150256
0.2814	0.009823419
0.2816	0.009925241
0.2818	0.008486917
0.282	0.006458365
0.2822	0.005427955
0.2824	0.004798115
0.2826	0.003831858
0.2828	0.002365977
0.283	0.001628752
0.2832	-0.001168761
0.2834	-0.001133449
0.2836	-0.001580225
0.2838	-0.002102436
0.284	-0.002341848
0.2842	-0.003193815
0.2844	-0.00479973
0.2846	-0.007439185
0.2848	-0.01007395
0.285	-0.009648909
0.2852	-0.009393257
0.2854	-0.01281607
0.2856	-0.01462116
0.2858	-0.01504317
0.286	-0.01672002
0.2862	-0.01692624
0.2864	-0.01751458
0.2866	-0.01810274
0.2868	-0.01731697
0.287	-0.01668907
0.2872	-0.01704401
0.2874	-0.01699632
0.2876	-0.01685786
0.2878	-0.01754378
0.288	-0.01746143
0.2882	-0.01746651
0.2884	-0.01700737
0.2886	-0.01886481
0.2888	-0.01845793
0.289	-0.01627956
0.2892	-0.01681004
0.2894	-0.01631405
0.2896	-0.0157255
0.2898	-0.01590834
0.29	-0.01509604
0.2902	-0.01527149
0.2904	-0.01528962
0.2906	-0.01344394
0.2908	-0.01118528
0.291	-0.0119295
0.2912	-0.01177691
0.2914	-0.01218043
0.2916	-0.01217067
0.2918	-0.01124878
0.292	-0.01002352
0.2922	-0.007499312
0.2924	-0.006597142
0.2926	-0.003883724
0.2928	-0.002884316
0.293	-0.002350262
0.2932	-0.001930102
0.2934	0.0004143003
0.2936	0.003780026
0.2938	0.004814987
0.294	0.004996344
0.2942	0.005465247
0.2944	0.006140369
0.2946	0.007199779
0.2948	0.009003926
0.295	0.008497422
0.2952	0.01014937
0.2954	0.0101633
0.2956	0.01256346
0.2958	0.013392
0.296	0.01513708
0.2962	0.01586541
0.2964	0.01522601
0.2966	0.01659577
0.2968	0.01700927
0.297	0.01754737
0.2972	0.01799532
0.2974	0.01956724
0.2976	0.01987359
0.2978	0.02000264
0.298	0.02013068
0.2982	0.02019235
0.2984	0.02081241
0.2986	0.02043566
0.2988	0.01925328
0.299	0.02029634
0.2992	0.02223634
0.2994	0.02163448
0.2996	0.0213116
0.2998	0.02111956
0.3	0.02077948
0.3002	0.01999041
0.3004	0.01803762
0.3006	0.01535133
0.3008	0.01502554
0.301	0.01239632
0.3012	0.01109963
0.3014	0.01074456
0.3016	0.01076668
0.3018	0.009787164
0.302	0.008705791
0.3022	0.007370009
0.3024	0.007421138
0.3026	0.006537998
0.3028	0.00641223
0.303	0.004490819
0.3032	0.002729723
0.3034	0.001377291
0.3036	0.0005042095
0.3038	-0.001818342
0.304	-0.00431265
0.3042	-0.005706421
0.3044	-0.00755509
0.3046	-0.008858497
0.3048	-0.01101468
0.305	-0.01310236
0.3052	-0.01359204
0.3054	-0.0140683
0.3056	-0.01385266
0.3058	-0.01318514
0.306	-0.01456776
0.3062	-0.01471638
0.3064	-0.01571855
0.3066	-0.01626702
0.3068	-0.01555147
0.307	-0.01631994
0.3072	-0.01662475
0.3074	-0.01767041
0.3076	-0.01741935
0.3078	-0.01772762
0.308	-0.01720048
0.3082	-0.01543131
0.3084	-0.01721433
0.3086	-0.01802979
0.3088	-0.0184533
0.309	-0.01691719
0.3092	-0.01543394
0.3094	-0.01490032
0.3096	-0.01573662
0.3098	-0.01665077
0.31	-0.01603259
0.3102	-0.0161876
0.3104	-0.01796016
0.3106	-0.01766212
0.3108	-0.01646334
0.311	-0.01538561
0.3112	-0.0127887
0.3114	-0.01170557
0.3116	-0.009798279
0.3118	-0.008371855
0.312	-0.006796129
0.3122	-0.00714267
0.3124	-0.006825965
0.3126	-0.006670248
0.3128	-0.005783481
0.313	-0.002741919
0.3132	-7.235031e-5
0.3134	0.0002138617
0.3136	0.000763624
0.3138	0.0002140368
0.314	0.0009024552
0.3142	0.002584273
0.3144	0.003095929
0.3146	0.003588224
0.3148	0.00629642
0.315	0.00809726
0.3152	0.007496824
0.3154	0.006623185
0.3156	0.007338225
0.3158	0.009961293
0.316	0.009696185
0.3162	0.008805901
0.3164	0.01047554
0.3166	0.01168773
0.3168	0.01143367
0.317	0.01247467
0.3172	0.01525269
0.3174	0.01532518
0.3176	0.01516369
0.3178	0.01694202
0.318	0.01768984
0.3182	0.01885712
0.3184	0.01749944
0.3186	0.01760928
0.3188	0.01863085
0.319	0.01908136
0.3192	0.01918944
0.3194	0.01959442
0.3196	0.01929936
0.3198	0.0168711
0.32	0.01555775
0.3202	0.01433236
0.3204	0.01414533
0.3206	0.01399752
0.3208	0.01157513
0.321	0.01015367
0.3212	0.01077277
0.3214	0.01023976
0.3216	0.01035401
0.3218	0.008229818
0.322	0.007764074
0.3222	0.007351162
0.3224	0.006269579
0.3226	0.005680361
0.3228	0.004044622
0.323	0.003158918
0.3232	0.001316269
0.3234	0.0002099286
0.3236	-0.0008941749
0.3238	-0.002135953
0.324	-0.002514958
0.3242	-0.003651574
0.3244	-0.005322902
0.3246	-0.007503366
0.3248	-0.008561017
0.325	-0.009748794
0.3252	-0.01088367
0.3254	-0.01214144
0.3256	-0.01241205
0.3258	-0.01350932
0.326	-0.01386885
0.3262	-0.01341584
0.3264	-0.0135556
0.3266	-0.0134086
0.3268	-0.01504894
0.327	-0.01693546
0.3272	-0.01734852
0.3274	-0.01578469
0.3276	-0.01631799
0.3278	-0.01740114
0.328	-0.01709153
0.3282	-0.01900457
0.3284	-0.01968429
0.3286	-0.01963524
0.3288	-0.01818175
0.329	-0.01750563
0.3292	-0.01832997
0.3294	-0.01967452
0.3296	-0.01888153
0.3298	-0.01709243
0.33	-0.01582826
0.3302	-0.01448983
0.3304	-0.0154577
0.3306	-0.01577558
0.3308	-0.01465672
0.331	-0.01351602
0.3312	-0.01382763
0.3314	-0.01293139
0.3316	-0.01110492
0.3318	-0.01116017
0.332	-0.008838709
0.3322	-0.006336741
0.3324	-0.005662413
0.3326	-0.005403231
0.3328	-0.004091577
0.333	-0.002060562
0.3332	-9.647711e-5
0.3334	-0.0002980662
0.3336	0.002161327
0.3338	0.004230333
0.334	0.005195785
0.3342	0.006701066
0.3344	0.008380149
0.3346	0.009299184
0.3348	0.01005529
0.335	0.01048943
0.3352	0.009671875
0.3354	0.01067576
0.3356	0.01254514
0.3358	0.01268867
0.336	0.01469255
0.3362	0.01618658
0.3364	0.01727422
0.3366	0.0199725
0.3368	0.02148386
0.337	0.02000076
0.3372	0.01911271
0.3374	0.01926473
0.3376	0.01961769
0.3378	0.02142636
0.338	0.02141045
0.3382	0.02147119
0.3384	0.02233286
0.3386	0.02126083
0.3388	0.02038424
0.339	0.02062245
0.3392	0.02078863
0.3394	0.02066275
0.3396	0.0198038
0.3398	0.01845954
0.34	0.01760389
0.3402	0.01601863
0.3404	0.01331152
0.3406	0.01189638
0.3408	0.01262941
0.341	0.01178887
0.3412	0.0133347
0.3414	0.01426927
0.3416	0.0124488
0.3418	0.01070785
0.342	0.008588679
0.3422	0.008235379
0.3424	0.007640907
0.3426	0.004703314
0.3428	0.00238015
0.343	0.001316041
0.3432	-0.0003327377
0.3434	-0.004801085
0.3436	-0.008006556
0.3438	-0.008218751
0.344	-0.01034921
0.3442	-0.01179241
0.3444	-0.01211599
0.3446	-0.0126692
0.3448	-0.01306435
0.345	-0.01439879
0.3452	-0.01474218
0.3454	-0.01304587
0.3456	-0.01376075
0.3458	-0.01427895
0.346	-0.01670157
0.3462	-0.01660112
0.3464	-0.01461924
0.3466	-0.01552007
0.3468	-0.01743586
0.347	-0.01679683
0.3472	-0.01760623
0.3474	-0.01900099
0.3476	-0.01994034
0.3478	-0.01970752
0.348	-0.0191913
0.3482	-0.01890477
0.3484	-0.01905607
0.3486	-0.01952611
0.3488	-0.01962178
0.349	-0.01735535
0.3492	-0.0152792
0.3494	-0.01571963
0.3496	-0.01586274
0.3498	-0.01520886
0.35	-0.01432767
0.3502	-0.01485195
0.3504	-0.01437354
0.3506	-0.01472572
0.3508	-0.01393854
0.351	-0.0132936
0.3512	-0.01303725
0.3514	-0.01125016
0.3516	-0.00980741
0.3518	-0.009138412
0.352	-0.006703984
0.3522	-0.00493475
0.3524	-0.004502623
0.3526	-0.003477476
0.3528	-0.002273281
0.353	-0.002056027
0.3532	-9.304342e-5
0.3534	0.002142704
0.3536	0.00139557
0.3538	0.0008677424
0.354	0.003570781
0.3542	0.005442091
0.3544	0.005380757
0.3546	0.005885273
0.3548	0.008228782
0.355	0.009740792
0.3552	0.01158877
0.3554	0.01265619
0.3556	0.01378989
0.3558	0.01486982
0.356	0.01485519
0.3562	0.01458982
0.3564	0.01555984
0.3566	0.0159835
0.3568	0.01586361
0.357	0.01866061
0.3572	0.02061612
0.3574	0.02127173
0.3576	0.02033833
0.3578	0.02034164
0.358	0.0200014
0.3582	0.02003902
0.3584	0.01994099
0.3586	0.02037705
0.3588	0.01963054
0.359	0.01831971
0.3592	0.01722057
0.3594	0.01783128
0.3596	0.0180715
0.3598	0.01641602
0.36	0.01385869
0.3602	0.01424756
0.3604	0.01514282
0.3606	0.01379697
0.3608	0.01292181
0.361	0.01151599
0.3612	0.01170675
0.3614	0.01007576
0.3616	0.008579513
0.3618	0.008419133
0.362	0.006004744
0.3622	0.005878181
0.3624	0.005691397
0.3626	0.003912678
0.3628	0.003662202
0.363	0.002148859
0.3632	-7.70964e-5
0.3634	-0.002353521
0.3636	-0.003907607
0.3638	-0.003976346
0.364	-0.00418999
0.3642	-0.005302799
0.3644	-0.006828479
0.3646	-0.007214545
0.3648	-0.0071945
0.365	-0.006487404
0.3652	-0.007775654
0.3654	-0.01069913
0.3656	-0.01126289
0.3658	-0.01110374
0.366	-0.01128132
0.3662	-0.01065643
0.3664	-0.01245123
0.3666	-0.01333075
0.3668	-0.01297689
0.367	-0.01409924
0.3672	-0.01602828
0.3674	-0.01597861
0.3676	-0.01530016
0.3678	-0.01606542
0.368	-0.01602815
0.3682	-0.01730389
0.3684	-0.01799413
0.3686	-0.01705476
0.3688	-0.0163445
0.369	-0.01534648
0.3692	-0.01537173
0.3694	-0.01543872
0.3696	-0.01540464
0.3698	-0.01523014
0.37	-0.01352242
0.3702	-0.01362378
0.3704	-0.01431155
0.3706	-0.01536798
0.3708	-0.01470337
0.371	-0.01557149
0.3712	-0.0153807
0.3714	-0.01410621
0.3716	-0.01402422
0.3718	-0.01302032
0.372	-0.0119205
0.3722	-0.01162445
0.3724	-0.009721825
0.3726	-0.009001193
0.3728	-0.009558802
0.373	-0.008593604
0.3732	-0.007851284
0.3734	-0.006595789
0.3736	-0.004582552
0.3738	-0.003684856
0.374	-0.003700604
0.3742	-0.001643657
0.3744	8.43918e-5
0.3746	0.0002354638
0.3748	0.003539969
0.375	0.005391764
0.3752	0.006160687
0.3754	0.007106893
0.3756	0.007396216
0.3758	0.009236198
0.376	0.01113378
0.3762	0.01301652
0.3764	0.0145745
0.3766	0.0154995
0.3768	0.01463926
0.377	0.0166849
0.3772	0.01883966
0.3774	0.01958032
0.3776	0.02039425
0.3778	0.01911166
0.378	0.01889333
0.3782	0.02076469
0.3784	0.02143569
0.3786	0.0202242
0.3788	0.01895126
0.379	0.01808646
0.3792	0.01859774
0.3794	0.01672508
0.3796	0.01604558
0.3798	0.01658224
0.38	0.01580287
0.3802	0.01701636
0.3804	0.01739041
0.3806	0.0163503
0.3808	0.01465227
0.381	0.01309331
0.3812	0.01259689
0.3814	0.01069397
0.3816	0.01153883
0.3818	0.01047321
0.382	0.007472842
0.3822	0.006665707
0.3824	0.004202257
0.3826	0.003415817
0.3828	0.003347216
0.383	0.001469256
0.3832	-0.0008726635
0.3834	-0.0006901049
0.3836	-0.001824184
0.3838	-0.00331051
0.384	-0.002834942
0.3842	-0.004177176
0.3844	-0.006362191
0.3846	-0.006275512
0.3848	-0.005631846
0.385	-0.005732533
0.3852	-0.007145318
0.3854	-0.008055286
0.3856	-0.009390559
0.3858	-0.009804185
0.386	-0.009301541
0.3862	-0.01011876
0.3864	-0.0109163
0.3866	-0.01108678
0.3868	-0.01124872
0.387	-0.01200883
0.3872	-0.01345413
0.3874	-0.01524239
0.3876	-0.01637294
0.3878	-0.01766048
0.388	-0.01714154
0.3882	-0.01729279
0.3884	-0.01822117
0.3886	-0.01852486
0.3888	-0.01800493
0.389	-0.01658731
0.3892	-0.01650087
0.3894	-0.01683445
0.3896	-0.01544345
0.3898	-0.01487062
0.39	-0.01511604
0.3902	-0.01353842
0.3904	-0.01209967
0.3906	-0.01071521
0.3908	-0.01061728
0.391	-0.01115479
0.3912	-0.01095272
0.3914	-0.0102216
0.3916	-0.009500147
0.3918	-0.00840745
0.392	-0.00713165
0.3922	-0.005860413
0.3924	-0.003976387
0.3926	-0.002387308
0.3928	-0.002254099
0.393	-0.0008065262
0.3932	0.0003923177
0.3934	0.001533462
0.3936	0.003814539
0.3938	0.005546165
0.394	0.006562334
0.3942	0.00801641
0.3944	0.00995445
0.3946	0.01003596
0.3948	0.01098784
0.395	0.01082672
0.3952	0.01052633
0.3954	0.01205461
0.3956	0.01360677
0.3958	0.01528074
0.396	0.01487591
0.3962	0.01634134
0.3964	0.01674092
0.3966	0.01540733
0.3968	0.01511745
0.397	0.01672024
0.3972	0.01765247
0.3974	0.01919721
0.3976	0.01932503
0.3978	0.01909906
0.398	0.01800604
0.3982	0.01781947
0.3984	0.01813134
0.3986	0.01934406
0.3988	0.01995241
0.399	0.01975082
0.3992	0.01929986
0.3994	0.01669978
0.3996	0.01558947
0.3998	0.01457065
0.4	0.01565431
0.4002	0.01579757
0.4004	0.01318027
0.4006	0.0128464
0.4008	0.01144716
0.401	0.01230814
0.4012	0.01158438
0.4014	0.01177341
0.4016	0.01151766
0.4018	0.0117732
0.402	0.009392544
0.4022	0.007394091
0.4024	0.005252526
0.4026	0.004183162
0.4028	0.003924125
0.403	0.001602342
0.4032	-0.0007719574
0.4034	-0.001798949
0.4036	-0.002093456
0.4038	-0.004369102
0.404	-0.006107845
0.4042	-0.008061112
0.4044	-0.009403952
0.4046	-0.01109786
0.4048	-0.01252262
0.405	-0.01338922
0.4052	-0.0144906
0.4054	-0.01595247
0.4056	-0.01599851
0.4058	-0.01508406
0.406	-0.01605225
0.4062	-0.01774396
0.4064	-0.01799884
0.4066	-0.01943449
0.4068	-0.01967113
0.407	-0.02025983
0.4072	-0.02146831
0.4074	-0.02139483
0.4076	-0.02094286
0.4078	-0.02143859
0.408	-0.02099091
0.4082	-0.02052572
0.4084	-0.01884749
0.4086	-0.01744784
0.4088	-0.01736702
0.409	-0.0182787
0.4092	-0.019121
0.4094	-0.01837161
0.4096	-0.01723556
0.4098	-0.01501142
0.41	-0.01285158
0.4102	-0.01178883
0.4104	-0.01212685
0.4106	-0.01139153
0.4108	-0.01046236
0.411	-0.009630827
0.4112	-0.01005289
0.4114	-0.009496222
0.4116	-0.005757696
0.4118	-0.004439628
0.412	-0.002613206
0.4122	-0.001264687
0.4124	6.774905e-5
0.4126	0.0001687386
0.4128	0.001158388
0.413	0.002319384
0.4132	0.002163853
0.4134	0.001557704
0.4136	0.001474198
0.4138	0.002415783
0.414	0.002521612
0.4142	0.002475184
0.4144	0.003453738
0.4146	0.004108959
0.4148	0.00505962
0.415	0.006112906
0.4152	0.006745778
0.4154	0.008299875
0.4156	0.01018683
0.4158	0.01083122
0.416	0.01138194
0.4162	0.01343853
0.4164	0.01364627
0.4166	0.01302841
0.4168	0.01241112
0.417	0.01430861
0.4172	0.01569395
0.4174	0.01513856
0.4176	0.01513129
0.4178	0.01627571
0.418	0.01592072
0.4182	0.0158544
0.4184	0.01685531
0.4186	0.01830888
0.4188	0.01768364
0.419	0.01741809
0.4192	0.01854065
0.4194	0.01794398
0.4196	0.01645265
0.4198	0.01543114
0.42	0.01423179
0.4202	0.01311791
0.4204	0.01219094
0.4206	0.01329966
0.4208	0.01249672
0.421	0.01185329
0.4212	0.01157355
0.4214	0.009459274
0.4216	0.008663541
0.4218	0.007591584
0.422	0.004985256
0.4222	0.004885718
0.4224	0.004878157
0.4226	0.002367046
0.4228	0.0002270307
0.423	0.001248221
0.4232	0.001948358
0.4234	0.0001494582
0.4236	-0.0004455106
0.4238	-0.002930532
0.424	-0.004809073
0.4242	-0.00449152
0.4244	-0.005895915
0.4246	-0.007459782
0.4248	-0.007650433
0.425	-0.0087806
0.4252	-0.009818519
0.4254	-0.01141153
0.4256	-0.0122061
0.4258	-0.01286452
0.426	-0.01403997
0.4262	-0.01411971
0.4264	-0.01491601
0.4266	-0.01512774
0.4268	-0.01484239
0.427	-0.01399551
0.4272	-0.015071
0.4274	-0.01585556
0.4276	-0.0155813
0.4278	-0.01621548
0.428	-0.01650689
0.4282	-0.01677643
0.4284	-0.01723299
0.4286	-0.01735223
0.4288	-0.01864521
0.429	-0.01868347
0.4292	-0.01625588
0.4294	-0.01535885
0.4296	-0.01437083
0.4298	-0.01319896
0.43	-0.01290996
0.4302	-0.01297252
0.4304	-0.011875
0.4306	-0.01176651
0.4308	-0.01272631
0.431	-0.01037431
0.4312	-0.009140665
0.4314	-0.009291532
0.4316	-0.007879154
0.4318	-0.00623916
0.432	-0.004541332
0.4322	-0.003678608
0.4324	-0.003187997
0.4326	-0.002244087
0.4328	-0.001448946
0.433	0.0001873321
0.4332	0.001908903
0.4334	0.002427131
0.4336	0.004134254
0.4338	0.004341197
0.434	0.004284202
0.4342	0.006016264
0.4344	0.007749005
0.4346	0.009794944
0.4348	0.01158216
0.435	0.01189594
0.4352	0.01203704
0.4354	0.01401974
0.4356	0.01452728
0.4358	0.01476233
0.436	0.01612707
0.4362	0.01582362
0.4364	0.01451267
0.4366	0.01396814
0.4368	0.01544488
0.437	0.0155285
0.4372	0.01624594
0.4374	0.01672312
0.4376	0.01665672
0.4378	0.01834093
0.438	0.01910847
0.4382	0.01827411
0.4384	0.01705176
0.4386	0.01504682
0.4388	0.01569105
0.439	0.01768291
0.4392	0.01878775
0.4394	0.01786565
0.4396	0.01622635
0.4398	0.01652023
0.44	0.01537591
0.4402	0.01475838
0.4404	0.01374962
0.4406	0.01333387
0.4408	0.0137149
0.441	0.01359442
0.4412	0.01159812
0.4414	0.009316299
0.4416	0.006832959
0.4418	0.004617931
0.442	0.004008539
0.4422	0.003708362
0.4424	0.002700969
0.4426	0.002446171
0.4428	0.001033083
0.443	-0.001157145
0.4432	-0.003571961
0.4434	-0.004758437
0.4436	-0.006037672
0.4438	-0.005613307
0.444	-0.006072913
0.4442	-0.006672617
0.4444	-0.008842219
0.4446	-0.01055771
0.4448	-0.01120552
0.445	-0.0114875
0.4452	-0.01085429
0.4454	-0.01244542
0.4456	-0.0128418
0.4458	-0.0126841
0.446	-0.01287842
0.4462	-0.01363064
0.4464	-0.01506009
0.4466	-0.01447505
0.4468	-0.01325322
0.447	-0.01413828
0.4472	-0.01683031
0.4474	-0.01845155
0.4476	-0.01847764
0.4478	-0.01951461
0.448	-0.02047928
0.4482	-0.01981842
0.4484	-0.01841292
0.4486	-0.01765607
0.4488	-0.01762921
0.449	-0.0169488
0.4492	-0.01819056
0.4494	-0.01878723
0.4496	-0.01767471
0.4498	-0.01710268
0.45	-0.01759889
0.4502	-0.01527553
0.4504	-0.01291487
0.4506	-0.01390921
0.4508	-0.01367688
0.451	-0.01218797
0.4512	-0.01095162
0.4514	-0.009240012
0.4516	-0.008504125
0.4518	-0.007628132
0.452	-0.007136701
0.4522	-0.006907425
0.4524	-0.006034884
0.4526	-0.004687058
0.4528	-0.003126721
0.453	-0.001493417
0.4532	-0.0004652397
0.4534	0.002072098
0.4536	0.00350063
0.4538	0.004393266
0.454	0.006756432
0.4542	0.005788466
0.4544	0.007119406
0.4546	0.008490438
0.4548	0.009636073
0.455	0.01103764
0.4552	0.01149267
0.4554	0.01246478
0.4556	0.01439032
0.4558	0.01535078
0.456	0.01577069
0.4562	0.01514505
0.4564	0.01413584
0.4566	0.01436397
0.4568	0.01515409
0.457	0.01561098
0.4572	0.01804672
0.4574	0.01903657
0.4576	0.01907658
0.4578	0.02003446
0.458	0.0200197
0.4582	0.01785452
0.4584	0.01850234
0.4586	0.01904586
0.4588	0.01944668
0.459	0.01857363
0.4592	0.01718452
0.4594	0.01549867
0.4596	0.01413317
0.4598	0.01571805
0.46	0.01677877
0.4602	0.01617879
0.4604	0.01620645
0.4606	0.01620693
0.4608	0.01455444
0.461	0.01361413
0.4612	0.01434821
0.4614	0.01373482
0.4616	0.01119336
0.4618	0.01057655
0.462	0.008920729
0.4622	0.007073273
0.4624	0.004325499
0.4626	0.002778211
0.4628	0.002076691
0.463	0.001603233
0.4632	0.001604302
0.4634	-0.0002874834
0.4636	-0.001735556
0.4638	-0.00448163
0.464	-0.005579771
0.4642	-0.005983117
0.4644	-0.007985586
0.4646	-0.009651266
0.4648	-0.01062324
0.465	-0.0132171
0.4652	-0.01685122
0.4654	-0.01796761
0.4656	-0.0188133
0.4658	-0.01783688
0.466	-0.0179425
0.4662	-0.01859218
0.4664	-0.01823978
0.4666	-0.01873641
0.4668	-0.02037311
0.467	-0.02078533
0.4672	-0.02031015
0.4674	-0.02089047
0.4676	-0.02183089
0.4678	-0.02023567
0.468	-0.01855474
0.4682	-0.01845929
0.4684	-0.01830244
0.4686	-0.01861527
0.4688	-0.01980841
0.469	-0.01986656
0.4692	-0.01951161
0.4694	-0.01767339
0.4696	-0.01591377
0.4698	-0.01535305
0.47	-0.01454533
0.4702	-0.01323733
0.4704	-0.01351897
0.4706	-0.01365996
0.4708	-0.01297843
0.471	-0.01323326
0.4712	-0.01217127
0.4714	-0.01110836
0.4716	-0.009688486
0.4718	-0.008980534
0.472	-0.008457784
0.4722	-0.008180196
0.4724	-0.007125991
0.4726	-0.007189854
0.4728	-0.006908889
0.473	-0.004757385
0.4732	-0.002565887
0.4734	-0.001679842
0.4736	0.0004544251
0.4738	0.001724454
0.474	0.003010422
0.4742	0.003701246
0.4744	0.0048957
0.4746	0.006925101
0.4748	0.007512464
0.475	0.01024587
0.4752	0.01141063
0.4754	0.01198344
0.4756	0.01267736
0.4758	0.01361154
0.476	0.0135644
0.4762	0.0149398
0.4764	0.01480951
0.4766	0.01509226
0.4768	0.01670141
0.477	0.01621942
0.4772	0.0168267
0.4774	0.01755054
0.4776	0.01881632
0.4778	0.01868103
0.478	0.01768482
0.4782	0.01734022
0.4784	0.01739317
0.4786	0.01698177
0.4788	0.01787152
0.479	0.01731329
0.4792	0.01767706
0.4794	0.01734053
0.4796	0.01796958
0.4798	0.0192644
0.48	0.01848581
0.4802	0.01606006
0.4804	0.01365949
0.4806	0.01485258
0.4808	0.01519378
0.481	0.01455521
0.4812	0.0132017
0.4814	0.01193717
0.4816	0.009974579
0.4818	0.00904606
0.482	0.008091262
0.4822	0.006391792
0.4824	0.005330133
0.4826	0.005544998
0.4828	0.003870414
0.483	0.002528736
0.4832	0.001610742
0.4834	-0.0001514242
0.4836	-0.001922242
0.4838	-0.003464035
0.484	-0.003958184
0.4842	-0.006149568
0.4844	-0.008139485
0.4846	-0.008248453
0.4848	-0.007637934
0.485	-0.007308433
0.4852	-0.008356947
0.4854	-0.009897845
0.4856	-0.01057755
0.4858	-0.01112994
0.486	-0.01231841
0.4862	-0.01172188
0.4864	-0.01107836
0.4866	-0.01103559
0.4868	-0.01219354
0.487	-0.01268474
0.4872	-0.01440069
0.4874	-0.01419455
0.4876	-0.01510677
0.4878	-0.01535575
0.488	-0.01715521
0.4882	-0.01864987
0.4884	-0.01772048
0.4886	-0.01713161
0.4888	-0.01656737
0.489	-0.01558535
0.4892	-0.01680448
0.4894	-0.01696863
0.4896	-0.01526157
0.4898	-0.01455716
0.49	-0.01484757
0.4902	-0.01395415
0.4904	-0.01291714
0.4906	-0.009861569
0.4908	-0.01036332
0.491	-0.01110128
0.4912	-0.009211526
0.4914	-0.007657759
0.4916	-0.007664078
0.4918	-0.008539717
0.492	-0.007528398
0.4922	-0.00525113
0.4924	-0.003344303
0.4926	-0.000921504
0.4928	0.0009951107
0.493	0.000662584
0.4932	0.001958231
0.4934	0.002415055
0.4936	0.004118316
0.4938	0.005072004
0.494	0.006033912
0.4942	0.007238735
0.4944	0.008140705
0.4946	0.01064507
0.4948	0.01071846
0.495	0.009828731
0.4952	0.00888494
0.4954	0.008515066
0.4956	0.01058296
0.4958	0.01156607
0.496	0.01056194
0.4962	0.01059093
0.4964	0.01105335
0.4966	0.01167001
0.4968	0.01316941
0.497	0.01428936
0.4972	0.01423816
0.4974	0.01427948
0.4976	0.01604657
0.4978	0.01675429
0.498	0.01645347
0.4982	0.0176653
0.4984	0.01726572
0.4986	0.01768129
0.4988	0.01869597
0.499	0.0175396
0.4992	0.01680095
0.4994	0.01663041
0.4996	0.0166812
0.4998	0.01639181
0.5	0.01598707
0.5002	0.01574909
0.5004	0.01562962
0.5006	0.01575165
0.5008	0.01360818
0.501	0.01241918
0.5012	0.01215192
0.5014	0.01070617
0.5016	0.00986832
0.5018	0.008997763
0.502	0.006682697
0.5022	0.004594289
0.5024	0.002363003
0.5026	0.001801016
0.5028	0.001581846
0.503	-0.001997517
0.5032	-0.003823487
0.5034	-0.003991179
0.5036	-0.005106717
0.5038	-0.005823749
0.504	-0.005261685
0.5042	-0.005932525
0.5044	-0.009626064
0.5046	-0.01028074
0.5048	-0.009003391
0.505	-0.009322843
0.5052	-0.01168739
0.5054	-0.01309845
0.5056	-0.01310236
0.5058	-0.01294255
0.506	-0.01397622
0.5062	-0.01444272
0.5064	-0.01541289
0.5066	-0.01615954
0.5068	-0.01772326
0.507	-0.01802291
0.5072	-0.01871096
0.5074	-0.01957299
0.5076	-0.01794966
0.5078	-0.01625098
0.508	-0.01617591
0.5082	-0.01645485
0.5084	-0.01667168
0.5086	-0.01768083
0.5088	-0.01692606
0.509	-0.01585619
0.5092	-0.01583149
0.5094	-0.01583074
0.5096	-0.01500647
0.5098	-0.01493393
0.51	-0.01433804
0.5102	-0.01277499
0.5104	-0.01148371
0.5106	-0.01063606
0.5108	-0.01065914
0.511	-0.01151607
0.5112	-0.01144518
0.5114	-0.0111387
0.5116	-0.0085912
0.5118	-0.00638892
0.512	-0.004864647
0.5122	-0.004368543
0.5124	-0.004162037
0.5126	-0.003946773
0.5128	-0.002312828
0.513	-0.000958137
0.5132	-0.0009104863
0.5134	-0.0009580857
0.5136	-0.00153473
0.5138	0.0004699384
0.514	0.00293863
0.5142	0.005803745
0.5144	0.006611356
0.5146	0.006545653
0.5148	0.01006941
0.515	0.0109884
0.5152	0.01354856
0.5154	0.01509147
0.5156	0.01373061
0.5158	0.01243235
0.516	0.0137229
0.5162	0.01407004
0.5164	0.01336143
0.5166	0.01371021
0.5168	0.01430217
0.517	0.01542757
0.5172	0.01554123
0.5174	0.01622087
0.5176	0.01771428
0.5178	0.01880418
0.518	0.01851995
0.5182	0.01736969
0.5184	0.01740234
0.5186	0.01672933
0.5188	0.01606719
0.519	0.0161511
0.5192	0.01576055
0.5194	0.01591069
0.5196	0.01596118
0.5198	0.01453154
0.52	0.01262343
0.5202	0.01228771
0.5204	0.01102323
0.5206	0.01104051
0.5208	0.01128045
0.521	0.0102842
0.5212	0.008890128
0.5214	0.009010045
0.5216	0.009151795
0.5218	0.007483278
0.522	0.005692654
0.5222	0.005206896
0.5224	0.005291011
0.5226	0.003665854
0.5228	0.002682955
0.523	0.00178919
0.5232	-0.0006480423
0.5234	-0.002458384
0.5236	-0.00385758
0.5238	-0.004614854
0.524	-0.005000656
0.5242	-0.004611243
0.5244	-0.005363942
0.5246	-0.008295565
0.5248	-0.009153746
0.525	-0.009896532
0.5252	-0.01069705
0.5254	-0.01068022
0.5256	-0.01041342
0.5258	-0.01258976
0.526	-0.0142051
0.5262	-0.01574714
0.5264	-0.01591094
0.5266	-0.0156986
0.5268	-0.01516074
0.527	-0.0166871
0.5272	-0.01626665
0.5274	-0.01579414
0.5276	-0.01682758
0.5278	-0.01587284
0.528	-0.01505557
0.5282	-0.01506795
0.5284	-0.01602591
0.5286	-0.01645559
0.5288	-0.01635283
0.529	-0.0153164
0.5292	-0.01667809
0.5294	-0.01706119
0.5296	-0.01568667
0.5298	-0.01348751
0.53	-0.01120543
0.5302	-0.01147291
0.5304	-0.01109102
0.5306	-0.01030497
0.5308	-0.008544416
0.531	-0.008488255
0.5312	-0.009062331
0.5314	-0.009455892
0.5316	-0.007205291
0.5318	-0.00708748
0.532	-0.006528106
0.5322	-0.004357628
0.5324	-0.004399632
0.5326	-0.00456504
0.5328	-0.002916997
0.533	-0.0003842039
0.5332	0.001202301
0.5334	0.004087054
0.5336	0.005637787
0.5338	0.005986782
0.534	0.006932528
0.5342	0.006172134
0.5344	0.006549079
0.5346	0.008130746
0.5348	0.008776559
0.535	0.01033705
0.5352	0.0111735
0.5354	0.01312779
0.5356	0.01224818
0.5358	0.01045634
0.536	0.01032391
0.5362	0.01032311
0.5364	0.01254434
0.5366	0.01301538
0.5368	0.01301686
0.537	0.01455545
0.5372	0.01571928
0.5374	0.01575229
0.5376	0.01669
0.5378	0.01800525
0.538	0.01699895
0.5382	0.01709415
0.5384	0.01740872
0.5386	0.0173779
0.5388	0.01813119
0.539	0.01859479
0.5392	0.01787234
0.5394	0.01617341
0.5396	0.01506866
0.5398	0.01500438
0.54	0.01186354
0.5402	0.01259773
0.5404	0.0135206
0.5406	0.01243153
0.5408	0.009693612
0.541	0.009606968
0.5412	0.008590692
0.5414	0.007812521
0.5416	0.008735276
0.5418	0.006352164
0.542	0.005290067
0.5422	0.002554282
0.5424	0.0006101988
0.5426	7.374766e-5
0.5428	-0.0004378457
0.543	-0.001914765
0.5432	-0.003087799
0.5434	-0.00422469
0.5436	-0.005569626
0.5438	-0.005451171
0.544	-0.006369682
0.5442	-0.007876456
0.5444	-0.00968118
0.5446	-0.009489753
0.5448	-0.009939383
0.545	-0.01032778
0.5452	-0.01085868
0.5454	-0.010162
0.5456	-0.01083987
0.5458	-0.01294813
0.546	-0.01416711
0.5462	-0.01326187
0.5464	-0.01222376
0.5466	-0.01413952
0.5468	-0.01495351
0.547	-0.01515411
0.5472	-0.01589822
0.5474	-0.01740733
0.5476	-0.01837737
0.5478	-0.01829467
0.548	-0.01789701
0.5482	-0.01825987
0.5484	-0.01655524
0.5486	-0.01648217
0.5488	-0.01653676
0.549	-0.01475112
0.5492	-0.01550811
0.5494	-0.01607077
0.5496	-0.01432225
0.5498	-0.012568
0.55	-0.01134686
0.5502	-0.01235037
0.5504	-0.01174787
0.5506	-0.009876769
0.5508	-0.008663493
0.551	-0.008971645
0.5512	-0.008433142
0.5514	-0.006363765
0.5516	-0.005824264
0.5518	-0.004533546
0.552	-0.003348817
0.5522	-0.001259693
0.5524	0.0004797032
0.5526	0.001358269
0.5528	0.001832278
0.553	0.003867367
0.5532	0.005446375
0.5534	0.006438965
0.5536	0.006790803
0.5538	0.006569841
0.554	0.008586396
0.5542	0.01077369
0.5544	0.01218791
0.5546	0.01113903
0.5548	0.0109048
0.555	0.01255297
0.5552	0.01304101
0.5554	0.01311542
0.5556	0.0152778
0.5558	0.01688774
0.556	0.01509816
0.5562	0.01467301
0.5564	0.01486328
0.5566	0.01391158
0.5568	0.01386187
0.557	0.0142858
0.5572	0.01309395
0.5574	0.01407905
0.5576	0.01415724
0.5578	0.01409225
0.558	0.01165671
0.5582	0.01169517
0.5584	0.01167386
0.5586	0.01091227
0.5588	0.01095259
0.559	0.01016035
0.5592	0.01092782
0.5594	0.0112176
0.5596	0.0108488
0.5598	0.01117353
0.56	0.01059569
0.5602	0.009873808
0.5604	0.00940152
0.5606	0.009833331
0.5608	0.009672247
0.561	0.009941064
0.5612	0.009186895
0.5614	0.007960674
0.5616	0.007747511
0.5618	0.007409821
0.562	0.005877791
0.5622	0.005655191
0.5624	0.00487915
0.5626	0.006499883
0.5628	0.006093868
0.563	0.005315629
0.5632	0.002766981
0.5634	0.000271371
0.5636	-0.0002415979
0.5638	4.33118e-5
0.564	-0.0008303198
0.5642	-0.002847827
0.5644	-0.006047386
0.5646	-0.008442515
0.5648	-0.009235824
0.565	-0.01135173
0.5652	-0.01252259
0.5654	-0.0150714
0.5656	-0.01472605
0.5658	-0.01661644
0.566	-0.01665141
0.5662	-0.01588695
0.5664	-0.01682568
0.5666	-0.01710514
0.5668	-0.01693988
0.567	-0.01682327
0.5672	-0.01761215
0.5674	-0.0160779
0.5676	-0.01786655
0.5678	-0.01841802
0.568	-0.01783339
0.5682	-0.01794432
0.5684	-0.01822978
0.5686	-0.01939461
0.5688	-0.01760619
0.569	-0.01561859
0.5692	-0.01583648
0.5694	-0.01437353
0.5696	-0.01304748
0.5698	-0.01205027
0.57	-0.01295229
0.5702	-0.01353777
0.5704	-0.01393356
0.5706	-0.01251139
0.5708	-0.01073917
0.571	-0.01084067
0.5712	-0.01121743
0.5714	-0.009674033
0.5716	-0.008093904
0.5718	-0.005961382
0.572	-0.004571358
0.5722	-0.004799081
0.5724	-0.003739185
0.5726	-0.002974752
0.5728	-0.001947218
0.573	-0.001071587
0.5732	0.0001427342
0.5734	0.002266256
0.5736	0.002582717
0.5738	0.002879022
0.574	0.004442171
0.5742	0.006809512
0.5744	0.007927239
0.5746	0.009152973
0.5748	0.0106246
0.575	0.009731744
0.5752	0.009623949
0.5754	0.01074791
0.5756	0.01273294
0.5758	0.01368024
0.576	0.01433926
0.5762	0.01587504
0.5764	0.01628664
0.5766	0.01662009
0.5768	0.01748555
0.577	0.0177678
0.5772	0.01683852
0.5774	0.01880951
0.5776	0.02021506
0.5778	0.01904241
0.578	0.01781054
0.5782	0.01759498
0.5784	0.01859107
0.5786	0.01834188
0.5788	0.01800396
0.579	0.01772776
0.5792	0.01690688
0.5794	0.01721238
0.5796	0.01689267
0.5798	0.01757349
0.58	0.0162377
0.5802	0.01404556
0.5804	0.01355885
0.5806	0.01307031
0.5808	0.01248517
0.581	0.01069757
0.5812	0.009389982
0.5814	0.009173245
0.5816	0.007595111
0.5818	0.007987462
0.582	0.0052311
0.5822	0.004106463
0.5824	0.002356112
0.5826	0.001514841
0.5828	0.003936672
0.583	0.003120126
0.5832	0.002652372
0.5834	0.001312339
0.5836	-0.0006072664
0.5838	-0.001460879
0.584	-0.001251363
0.5842	-0.002004186
0.5844	-0.00293724
0.5846	-0.005046416
0.5848	-0.006673917
0.585	-0.006080722
0.5852	-0.00709816
0.5854	-0.008629084
0.5856	-0.01024098
0.5858	-0.01139615
0.586	-0.01245399
0.5862	-0.01225604
0.5864	-0.01281866
0.5866	-0.0145548
0.5868	-0.01574037
0.587	-0.01702079
0.5872	-0.01791976
0.5874	-0.0189065
0.5876	-0.0186063
0.5878	-0.01954381
0.588	-0.01994246
0.5882	-0.02040119
0.5884	-0.02007627
0.5886	-0.01822749
0.5888	-0.01675696
0.589	-0.01722201
0.5892	-0.01555744
0.5894	-0.01719384
0.5896	-0.01649523
0.5898	-0.01561667
0.59	-0.01633898
0.5902	-0.01666285
0.5904	-0.01628667
0.5906	-0.01607229
0.5908	-0.01562493
0.591	-0.01478139
0.5912	-0.01342557
0.5914	-0.01160193
0.5916	-0.01092105
0.5918	-0.01076708
0.592	-0.01186741
0.5922	-0.009816602
0.5924	-0.007842952
0.5926	-0.006831123
0.5928	-0.005252887
0.593	-0.003891905
0.5932	-0.00374071
0.5934	-0.002707655
0.5936	-0.001348267
0.5938	0.001139605
0.594	0.002647492
0.5942	0.003791147
0.5944	0.005562163
0.5946	0.005175207
0.5948	0.006565833
0.595	0.008120284
0.5952	0.008921606
0.5954	0.0112672
0.5956	0.01249999
0.5958	0.01169272
0.596	0.01171489
0.5962	0.01200958
0.5964	0.0115051
0.5966	0.01428719
0.5968	0.01489867
0.597	0.01535454
0.5972	0.01485769
0.5974	0.01470331
0.5976	0.01482981
0.5978	0.01606482
0.598	0.0176268
0.5982	0.01822244
0.5984	0.0209631
0.5986	0.0214846
0.5988	0.02037275
0.599	0.01814611
0.5992	0.01853458
0.5994	0.01854521
0.5996	0.01791928
0.5998	0.01648375
0.6	0.01379803
0.6002	0.01316642
0.6004	0.01344123
0.6006	0.01308695
0.6008	0.01274485
0.601	0.01344544
0.6012	0.01270401
0.6014	0.01040357
0.6016	0.008987979
0.6018	0.008101591
0.602	0.007745875
0.6022	0.006765374
0.6024	0.006238686
0.6026	0.006099977
0.6028	0.0047108
0.603	0.003363631
0.6032	0.002341917
0.6034	0.001081938
0.6036	-0.001219126
0.6038	-0.003195825
0.604	-0.002839931
0.6042	-0.004011979
0.6044	-0.004418862
0.6046	-0.004685161
0.6048	-0.007180208
0.605	-0.008548597
0.6052	-0.009082729
0.6054	-0.00947308
0.6056	-0.01052999
0.6058	-0.01302385
0.606	-0.01255
0.6062	-0.01353717
0.6064	-0.01492723
0.6066	-0.01620012
0.6068	-0.01617497
0.607	-0.01590249
0.6072	-0.01541079
0.6074	-0.01566868
0.6076	-0.01584523
0.6078	-0.01566643
0.608	-0.01731176
0.6082	-0.01875833
0.6084	-0.01996547
0.6086	-0.01942785
0.6088	-0.01829208
0.609	-0.01771694
0.6092	-0.01887846
0.6094	-0.01898632
0.6096	-0.01553713
0.6098	-0.01316678
0.61	-0.01318779
0.6102	-0.01309274
0.6104	-0.01172481
0.6106	-0.01120133
0.6108	-0.01098009
0.611	-0.0110368
0.6112	-0.009751935
0.6114	-0.00896553
0.6116	-0.0088219
0.6118	-0.007951854
0.612	-0.005534403
0.6122	-0.003230447
0.6124	-0.002857338
0.6126	-0.0017547
0.6128	-0.0004111831
0.613	0.0001227265
0.6132	0.0009623949
0.6134	0.001851972
0.6136	0.00210974
0.6138	0.003551602
0.614	0.005146286
0.6142	0.006017607
0.6144	0.007728675
0.6146	0.008761816
0.6148	0.008878499
0.615	0.008706241
0.6152	0.009754861
0.6154	0.01128564
0.6156	0.01161725
0.6158	0.0130142
0.616	0.01416082
0.6162	0.01613107
0.6164	0.01588253
0.6166	0.01595611
0.6168	0.01670697
0.617	0.01668426
0.6172	0.01605046
0.6174	0.01556803
0.6176	0.01577549
0.6178	0.01624379
0.618	0.01729907
0.6182	0.01798969
0.6184	0.01811443
0.6186	0.01608225
0.6188	0.01563641
0.619	0.01477936
0.6192	0.01401571
0.6194	0.01437941
0.6196	0.01413976
0.6198	0.01494876
0.62	0.01436411
0.6202	0.01314521
0.6204	0.01193626
0.6206	0.01201181
0.6208	0.011159
0.621	0.008396033
0.6212	0.007330607
0.6214	0.006406697
0.6216	0.005879932
0.6218	0.003750245
0.622	0.003067828
0.6222	0.002203925
0.6224	-0.00051632
0.6226	-0.0007835668
0.6228	-0.002187335
0.623	-0.00283438
0.6232	-0.003815079
0.6234	-0.005453777
0.6236	-0.005409447
0.6238	-0.006537656
0.624	-0.00878399
0.6242	-0.01040027
0.6244	-0.01048804
0.6246	-0.01123083
0.6248	-0.01160423
0.625	-0.01153737
0.6252	-0.01325715
0.6254	-0.01343779
0.6256	-0.01504934
0.6258	-0.01453436
0.626	-0.01528429
0.6262	-0.0170762
0.6264	-0.01781034
0.6266	-0.01796277
0.6268	-0.01675694
0.627	-0.01704982
0.6272	-0.01849247
0.6274	-0.01807115
0.6276	-0.01768194
0.6278	-0.01654668
0.628	-0.01645566
0.6282	-0.01545396
0.6284	-0.01581758
0.6286	-0.01721158
0.6288	-0.01776104
0.629	-0.01679066
0.6292	-0.01627816
0.6294	-0.01533413
0.6296	-0.01357206
0.6298	-0.01332292
0.63	-0.01226138
0.6302	-0.01120163
0.6304	-0.01058745
0.6306	-0.009611041
0.6308	-0.01023565
0.631	-0.009564948
0.6312	-0.009983951
0.6314	-0.01121112
0.6316	-0.008657975
0.6318	-0.007873992
0.632	-0.006929296
0.6322	-0.007020089
0.6324	-0.005932017
0.6326	-0.002820102
0.6328	0.001350653
0.633	0.002473242
0.6332	0.003329648
0.6334	0.003514691
0.6336	0.003995647
0.6338	0.004983119
0.634	0.006421665
0.6342	0.007408508
0.6344	0.007228954
0.6346	0.008444609
0.6348	0.0103386
0.635	0.0120049
0.6352	0.011752
0.6354	0.01239466
0.6356	0.01307553
0.6358	0.01456861
0.636	0.01598055
0.6362	0.0163308
0.6364	0.01675326
0.6366	0.01705011
0.6368	0.01615352
0.637	0.01602798
0.6372	0.01610664
0.6374	0.01713026
0.6376	0.0188833
0.6378	0.01928482
0.638	0.0192667
0.6382	0.01960725
0.6384	0.01981845
0.6386	0.01862996
0.6388	0.01798435
0.639	0.01882861
0.6392	0.01761444
0.6394	0.01623283
0.6396	0.01607788
0.6398	0.01457125
0.64	0.01352825
0.6402	0.01223409
0.6404	0.01106645
0.6406	0.01103016
0.6408	0.01134733
0.641	0.01204796
0.6412	0.01205381
0.6414	0.01190042
0.6416	0.01081209
0.6418	0.009056876
0.642	0.008333148
0.6422	0.00643971
0.6424	0.005538195
0.6426	0.005333834
0.6428	0.004698071
0.643	0.002871189
0.6432	0.002126614
0.6434	0.000926204
0.6436	-0.0007642937
0.6438	-0.0005813799
0.644	-0.002572876
0.6442	-0.003936521
0.6444	-0.005951626
0.6446	-0.008196059
0.6448	-0.01062628
0.645	-0.01184354
0.6452	-0.01247324
0.6454	-0.01235893
0.6456	-0.01376626
0.6458	-0.01463212
0.646	-0.0154995
0.6462	-0.01693658
0.6464	-0.01637003
0.6466	-0.01633596
0.6468	-0.01632476
0.647	-0.01669309
0.6472	-0.01924069
0.6474	-0.02007861
0.6476	-0.01923373
0.6478	-0.01918306
0.648	-0.01951586
0.6482	-0.01836316
0.6484	-0.0166895
0.6486	-0.01632344
0.6488	-0.01681609
0.649	-0.01701095
0.6492	-0.01734169
0.6494	-0.01709934
0.6496	-0.01656243
0.6498	-0.01536315
0.65	-0.01624252
0.6502	-0.01550122
0.6504	-0.01502575
0.6506	-0.01286945
0.6508	-0.01118135
0.651	-0.01287653
0.6512	-0.01349698
0.6514	-0.0127738
0.6516	-0.01307226
0.6518	-0.01289389
0.652	-0.01109628
0.6522	-0.009782
0.6524	-0.008054107
0.6526	-0.007258756
0.6528	-0.006740692
0.653	-0.004862434
0.6532	-0.002921648
0.6534	-0.0009644344
0.6536	0.001051651
0.6538	0.002348036
0.654	0.004021381
0.6542	0.005352284
0.6544	0.005471892
0.6546	0.006642513
0.6548	0.008522507
0.655	0.01010464
0.6552	0.01116338
0.6554	0.01224006
0.6556	0.01218643
0.6558	0.01338689
0.656	0.01327526
0.6562	0.01370999
0.6564	0.01460056
0.6566	0.01421497
0.6568	0.01461195
0.657	0.01358069
0.6572	0.01395077
0.6574	0.01431289
0.6576	0.01257649
0.6578	0.01136135
0.658	0.01160089
0.6582	0.01364789
0.6584	0.01436173
0.6586	0.01499425
0.6588	0.01511375
0.659	0.01542234
0.6592	0.01505326
0.6594	0.01435312
0.6596	0.0139732
0.6598	0.01318624
0.66	0.01316592
0.6602	0.01288804
0.6604	0.0113446
0.6606	0.01052907
0.6608	0.01045092
0.661	0.00979383
0.6612	0.01061682
0.6614	0.009889171
0.6616	0.0103739
0.6618	0.008933241
0.662	0.006397474
0.6622	0.004949003
0.6624	0.004412519
0.6626	0.002739054
0.6628	0.001417708
0.663	0.0005615767
0.6632	-0.0007322849
0.6634	-0.001925041
0.6636	-0.003216874
0.6638	-0.004057422
0.664	-0.00517522
0.6642	-0.005206215
0.6644	-0.006866204
0.6646	-0.006922201
0.6648	-0.006647573
0.665	-0.006357294
0.6652	-0.007954923
0.6654	-0.007973557
0.6656	-0.007921381
0.6658	-0.009288055
0.666	-0.01048128
0.6662	-0.01171374
0.6664	-0.01216934
0.6666	-0.01269623
0.6668	-0.01326765
0.667	-0.01434544
0.6672	-0.01523856
0.6674	-0.01597526
0.6676	-0.01556422
0.6678	-0.01532817
0.668	-0.01385931
0.6682	-0.01471291
0.6684	-0.01535307
0.6686	-0.01547635
0.6688	-0.0152591
0.669	-0.01544548
0.6692	-0.01533607
0.6694	-0.01556355
0.6696	-0.01463345
0.6698	-0.0143163
0.67	-0.0137246
0.6702	-0.01155539
0.6704	-0.01059685
0.6706	-0.01030256
0.6708	-0.01105447
0.671	-0.0102812
0.6712	-0.008514038
0.6714	-0.007386631
0.6716	-0.007854472
0.6718	-0.006042141
0.672	-0.0043572
0.6722	-0.004844407
0.6724	-0.002671568
0.6726	-0.002960705
0.6728	-0.001020493
0.673	0.001809122
0.6732	0.002830997
0.6734	0.004218686
0.6736	0.002853652
0.6738	0.004160467
0.674	0.006772892
0.6742	0.008910756
0.6744	0.01192014
0.6746	0.01140975
0.6748	0.009502399
0.675	0.009365365
0.6752	0.01036174
0.6754	0.01257692
0.6756	0.01326834
0.6758	0.01315459
0.676	0.01449823
0.6762	0.01509438
0.6764	0.01634147
0.6766	0.01703188
0.6768	0.01852188
0.677	0.01968722
0.6772	0.01914736
0.6774	0.01889129
0.6776	0.01912737
0.6778	0.02090988
0.678	0.02105625
0.6782	0.02020242
0.6784	0.01966484
0.6786	0.0202988
0.6788	0.01961611
0.679	0.01982918
0.6792	0.02015236
0.6794	0.01947844
0.6796	0.01693878
0.6798	0.01632954
0.68	0.01611753
0.6802	0.01562078
0.6804	0.01536031
0.6806	0.01333739
0.6808	0.01183083
0.681	0.01177273
0.6812	0.01097874
0.6814	0.009767462
0.6816	0.007874812
0.6818	0.006068662
0.682	0.00546182
0.6822	0.003477814
0.6824	0.0009834191
0.6826	-0.0002197362
0.6828	-0.001949212
0.683	-0.005505099
0.6832	-0.007435185
0.6834	-0.008061168
0.6836	-0.01042615
0.6838	-0.01300282
0.684	-0.01267056
0.6842	-0.01218927
0.6844	-0.01180428
0.6846	-0.01270976
0.6848	-0.01559118
0.685	-0.01704265
0.6852	-0.01769045
0.6854	-0.017405
0.6856	-0.01573919
0.6858	-0.0160518
0.686	-0.01658435
0.6862	-0.01762413
0.6864	-0.01832463
0.6866	-0.01726779
0.6868	-0.01735178
0.687	-0.01817
0.6872	-0.0174661
0.6874	-0.01761227
0.6876	-0.01805179
0.6878	-0.0199912
0.688	-0.02081257
0.6882	-0.0213895
0.6884	-0.02152921
0.6886	-0.0206061
0.6888	-0.02040467
0.689	-0.01992882
0.6892	-0.01858645
0.6894	-0.0174027
0.6896	-0.01677163
0.6898	-0.01502607
0.69	-0.01507447
0.6902	-0.01342528
0.6904	-0.01262898
0.6906	-0.01209369
0.6908	-0.01248389
0.691	-0.01201378
0.6912	-0.01092695
0.6914	-0.009667168
0.6916	-0.008479174
0.6918	-0.008269716
0.692	-0.00719164
0.6922	-0.006446003
0.6924	-0.004615251
0.6926	-0.00212581
0.6928	-0.0004721735
0.693	0.000717483
0.6932	0.001570319
0.6934	0.003184432
0.6936	0.00371376
0.6938	0.003182295
0.694	0.004841951
0.6942	0.00684681
0.6944	0.00677864
0.6946	0.00677033
0.6948	0.007994209
0.695	0.0100222
0.6952	0.01056835
0.6954	0.01260259
0.6956	0.0143889
0.6958	0.01459292
0.696	0.01364741
0.6962	0.01476749
0.6964	0.01538741
0.6966	0.01587993
0.6968	0.01514486
0.697	0.01538602
0.6972	0.01552589
0.6974	0.01481843
0.6976	0.01558926
0.6978	0.01737022
0.698	0.01760585
0.6982	0.01632415
0.6984	0.01692439
0.6986	0.0165346
0.6988	0.01738153
0.699	0.01934853
0.6992	0.02168126
0.6994	0.01912349
0.6996	0.01651599
0.6998	0.0169827
0.7	0.0172909
0.7002	0.01671488
0.7004	0.01476322
0.7006	0.01247201
0.7008	0.01021139
0.701	0.01048346
0.7012	0.0109339
0.7014	0.01020642
0.7016	0.008412181
0.7018	0.007966062
0.702	0.008333032
0.7022	0.00683592
0.7024	0.006514449
0.7026	0.005997644
0.7028	0.003948041
0.703	0.002108586
0.7032	0.001818648
0.7034	-0.0007482382
0.7036	-0.002140467
0.7038	-0.003351754
0.704	-0.002838465
0.7042	-0.001628686
0.7044	-0.002246186
0.7046	-0.00396972
0.7048	-0.00662512
0.705	-0.00942771
0.7052	-0.01106664
0.7054	-0.01112871
0.7056	-0.01227777
0.7058	-0.01346313
0.706	-0.01275249
0.7062	-0.01246121
0.7064	-0.01460814
0.7066	-0.01611068
0.7068	-0.01730512
0.707	-0.01820574
0.7072	-0.01824449
0.7074	-0.01890199
0.7076	-0.01951022
0.7078	-0.02063081
0.708	-0.02100703
0.7082	-0.02094754
0.7084	-0.02159592
0.7086	-0.02205084
0.7088	-0.02093262
0.709	-0.01957547
0.7092	-0.01857448
0.7094	-0.01797746
0.7096	-0.01742476
0.7098	-0.01630148
0.71	-0.01446392
0.7102	-0.01348879
0.7104	-0.01206998
0.7106	-0.01157197
0.7108	-0.0112343
0.711	-0.0113041
0.7112	-0.009540687
0.7114	-0.008244487
0.7116	-0.009114892
0.7118	-0.008484
0.712	-0.007157624
0.7122	-0.005203045
0.7124	-0.004499682
0.7126	-0.003878936
0.7128	-0.002240062
0.713	-0.002355519
0.7132	-0.0006814136
0.7134	0.00185034
0.7136	0.004726287
0.7138	0.007521952
0.714	0.006666166
0.7142	0.007715625
0.7144	0.008226416
0.7146	0.009264857
0.7148	0.01073724
0.715	0.01130108
0.7152	0.01111609
0.7154	0.01131391
0.7156	0.01242186
0.7158	0.01373305
0.716	0.01468349
0.7162	0.01547671
0.7164	0.01602933
0.7166	0.01589026
0.7168	0.01707615
0.717	0.01770023
0.7172	0.01828716
0.7174	0.01821462
0.7176	0.01891488
0.7178	0.0208957
0.718	0.02076616
0.7182	0.01945386
0.7184	0.01813779
0.7186	0.01813594
0.7188	0.01920359
0.719	0.01845038
0.7192	0.01904292
0.7194	0.01861805
0.7196	0.01685306
0.7198	0.01635216
0.72	0.01617192
0.7202	0.01484357
0.7204	0.0133844
0.7206	0.01182489
0.7208	0.0122857
0.721	0.01339126
0.7212	0.01174103
0.7214	0.009500878
0.7216	0.008293996
0.7218	0.008359524
0.722	0.007727677
0.7222	0.006373248
0.7224	0.004634769
0.7226	0.003154294
0.7228	0.002264828
0.723	0.002045423
0.7232	0.001550643
0.7234	0.0004571421
0.7236	-0.0008366852
0.7238	-0.001936351
0.724	-0.002725779
0.7242	-0.00393275
0.7244	-0.005032478
0.7246	-0.007311699
0.7248	-0.009325165
0.725	-0.01227607
0.7252	-0.0128926
0.7254	-0.01331281
0.7256	-0.01370466
0.7258	-0.0149185
0.726	-0.01472994
0.7262	-0.01373621
0.7264	-0.01314452
0.7266	-0.01436918
0.7268	-0.01499433
0.727	-0.01541004
0.7272	-0.01686264
0.7274	-0.01942368
0.7276	-0.02075884
0.7278	-0.01977013
0.728	-0.01866414
0.7282	-0.01882596
0.7284	-0.02027931
0.7286	-0.02013849
0.7288	-0.02009914
0.729	-0.0210467
0.7292	-0.02141062
0.7294	-0.02049646
0.7296	-0.01880904
0.7298	-0.01703776
0.73	-0.01724912
0.7302	-0.01565398
0.7304	-0.01457374
0.7306	-0.0155564
0.7308	-0.01613201
0.731	-0.01490786
0.7312	-0.01296187
0.7314	-0.01290745
0.7316	-0.01111468
0.7318	-0.009008356
0.732	-0.007388717
0.7322	-0.006033534
0.7324	-0.006108984
0.7326	-0.005876267
0.7328	-0.003341803
0.733	-0.001887382
0.7332	0.0002795106
0.7334	0.002078399
0.7336	0.001646437
0.7338	0.003847403
0.734	0.006519114
0.7342	0.008638692
0.7344	0.009262758
0.7346	0.008962155
0.7348	0.009276823
0.735	0.009722508
0.7352	0.01122743
0.7354	0.01190931
0.7356	0.01314356
0.7358	0.01290007
0.736	0.0131507
0.7362	0.01427058
0.7364	0.01519
0.7366	0.01578622
0.7368	0.01610362
0.737	0.01625708
0.7372	0.01909908
0.7374	0.01975248
0.7376	0.01996875
0.7378	0.02106638
0.738	0.02088481
0.7382	0.01899661
0.7384	0.01861375
0.7386	0.01875052
0.7388	0.01928088
0.739	0.02047718
0.7392	0.01948986
0.7394	0.01980498
0.7396	0.01979398
0.7398	0.01852752
0.74	0.01695178
0.7402	0.01640628
0.7404	0.01591528
0.7406	0.01495021
0.7408	0.01328539
0.741	0.01214577
0.7412	0.01265871
0.7414	0.01100282
0.7416	0.009647598
0.7418	0.008381028
0.742	0.007831162
0.7422	0.006422556
0.7424	0.005379675
0.7426	0.00534044
0.7428	0.004898981
0.743	0.002318405
0.7432	0.00189437
0.7434	0.0007245828
0.7436	-0.0016454
0.7438	-0.002524564
0.744	-0.00382016
0.7442	-0.004823889
0.7444	-0.00513965
0.7446	-0.00717947
0.7448	-0.009048809
0.745	-0.01083867
0.7452	-0.01109849
0.7454	-0.0112902
0.7456	-0.01346544
0.7458	-0.01433143
0.746	-0.01531992
0.7462	-0.01553553
0.7464	-0.01611935
0.7466	-0.01669549
0.7468	-0.01814065
0.747	-0.0183165
0.7472	-0.01773087
0.7474	-0.01952386
0.7476	-0.02246532
0.7478	-0.0226901
0.748	-0.02041085
0.7482	-0.01991617
0.7484	-0.02076238
0.7486	-0.02138649
0.7488	-0.02231812
0.749	-0.02242172
0.7492	-0.02032709
0.7494	-0.01939833
0.7496	-0.01882023
0.7498	-0.01823293
0.75	-0.01908967
0.7502	-0.01796778
0.7504	-0.01602447
0.7506	-0.01548957
0.7508	-0.01568065
0.751	-0.01501741
0.7512	-0.01272621
0.7514	-0.01219743
0.7516	-0.01217906
0.7518	-0.01081064
0.752	-0.008368176
0.7522	-0.005681604
0.7524	-0.004260066
0.7526	-0.002964147
0.7528	-0.001314401
0.753	5.249719e-5
0.7532	0.0002112096
0.7534	0.00126808
0.7536	0.002499243
0.7538	0.00430475
0.754	0.004235391
0.7542	0.006768732
0.7544	0.008607385
0.7546	0.01047849
0.7548	0.01100254
0.755	0.01073718
0.7552	0.01116457
0.7554	0.01308526
0.7556	0.0156464
0.7558	0.01484431
0.756	0.01428748
0.7562	0.01377832
0.7564	0.01295885
0.7566	0.01265801
0.7568	0.0155093
0.757	0.01583684
0.7572	0.01510163
0.7574	0.01696948
0.7576	0.01776624
0.7578	0.01862979
0.758	0.0174364
0.7582	0.01751296
0.7584	0.01857006
0.7586	0.01942011
0.7588	0.02022592
0.759	0.01996999
0.7592	0.01910682
0.7594	0.01729884
0.7596	0.01525254
0.7598	0.01418566
0.76	0.01571881
0.7602	0.01509191
0.7604	0.0144081
0.7606	0.0133304
0.7608	0.01178018
0.761	0.01193753
0.7612	0.01053387
0.7614	0.009017763
0.7616	0.007085582
0.7618	0.006378595
0.762	0.006302773
0.7622	0.00535231
0.7624	0.002949168
0.7626	0.001538191
0.7628	0.002174897
0.763	0.001292864
0.7632	-0.0001660112
0.7634	-2.417854e-5
0.7636	-0.0003602273
0.7638	-0.001887662
0.764	-0.003541667
0.7642	-0.004544335
0.7644	-0.005857277
0.7646	-0.006376723
0.7648	-0.007260099
0.765	-0.006628548
0.7652	-0.006169305
0.7654	-0.007134499
0.7656	-0.008189762
0.7658	-0.008767436
0.766	-0.01046617
0.7662	-0.01164169
0.7664	-0.01215849
0.7666	-0.01335961
0.7668	-0.01438814
0.767	-0.01620752
0.7672	-0.01636952
0.7674	-0.0175416
0.7676	-0.0205495
0.7678	-0.0202903
0.768	-0.0203745
0.7682	-0.01984583
0.7684	-0.01830268
0.7686	-0.01795692
0.7688	-0.01673688
0.769	-0.01590325
0.7692	-0.01591176
0.7694	-0.01488776
0.7696	-0.01414976
0.7698	-0.01286886
0.77	-0.01369384
0.7702	-0.01540238
0.7704	-0.0159895
0.7706	-0.01608341
0.7708	-0.01569554
0.771	-0.01459317
0.7712	-0.01474451
0.7714	-0.01299163
0.7716	-0.01117748
0.7718	-0.01026337
0.772	-0.01033266
0.7722	-0.009322401
0.7724	-0.006444962
0.7726	-0.003704217
0.7728	-0.002273487
0.773	-0.002201739
0.7732	-0.001103969
0.7734	0.0003964072
0.7736	0.002122371
0.7738	0.002276475
0.774	0.003206058
0.7742	0.003905489
0.7744	0.004469868
0.7746	0.006320016
0.7748	0.006787014
0.775	0.008508379
0.7752	0.01039592
0.7754	0.01117431
0.7756	0.01162494
0.7758	0.01184837
0.776	0.01256665
0.7762	0.01306337
0.7764	0.01363218
0.7766	0.01169014
0.7768	0.0122295
0.777	0.01287773
0.7772	0.01331399
0.7774	0.01314704
0.7776	0.01409663
0.7778	0.01450263
0.778	0.01633012
0.7782	0.01725423
0.7784	0.01753918
0.7786	0.01711538
0.7788	0.01818235
0.779	0.01778692
0.7792	0.01579783
0.7794	0.01667364
0.7796	0.01657349
0.7798	0.01393285
0.78	0.01458469
0.7802	0.01349735
0.7804	0.01225887
0.7806	0.01378357
0.7808	0.0132357
0.781	0.01308765
0.7812	0.01171158
0.7814	0.01011815
0.7816	0.01064815
0.7818	0.01045287
0.782	0.009533385
0.7822	0.007005328
0.7824	0.006245157
0.7826	0.00552845
0.7828	0.003256759
0.783	0.00113044
0.7832	-0.0008972022
0.7834	-0.001846846
0.7836	-0.002574913
0.7838	-0.003081377
0.784	-0.003354837
0.7842	-0.004698946
0.7844	-0.005791104
0.7846	-0.007985501
0.7848	-0.008264196
0.785	-0.009006145
0.7852	-0.009007288
0.7854	-0.009369641
0.7856	-0.01214793
0.7858	-0.01328718
0.786	-0.01312488
0.7862	-0.01422517
0.7864	-0.01486907
0.7866	-0.01672499
0.7868	-0.01858451
0.787	-0.01829756
0.7872	-0.01796136
0.7874	-0.01785711
0.7876	-0.01990141
0.7878	-0.01964756
0.788	-0.02016
0.7882	-0.01954793
0.7884	-0.01870874
0.7886	-0.01770615
0.7888	-0.01730627
0.789	-0.01975711
0.7892	-0.02034482
0.7894	-0.01877785
0.7896	-0.01701995
0.7898	-0.01481848
0.79	-0.0128903
0.7902	-0.0131055
0.7904	-0.01325782
0.7906	-0.01216373
0.7908	-0.01045353
0.791	-0.01040497
0.7912	-0.008205026
0.7914	-0.007096457
0.7916	-0.006095149
0.7918	-0.005295694
0.792	-0.003802658
0.7922	-0.002463568
0.7924	-0.001564722
0.7926	0.0002105343
0.7928	0.0006950842
0.793	0.001995007
0.7932	0.001097378
0.7934	0.002089014
0.7936	0.002327392
0.7938	0.003999162
0.794	0.007192106
0.7942	0.007950066
0.7944	0.008104838
0.7946	0.009060008
0.7948	0.01011486
0.795	0.01057814
0.7952	0.01173954
0.7954	0.01235224
0.7956	0.01178976
0.7958	0.01122054
0.796	0.01183058
0.7962	0.0134059
0.7964	0.01225652
0.7966	0.01093719
0.7968	0.009669955
0.797	0.00984785
0.7972	0.01013179
0.7974	0.01217017
0.7976	0.01453055
0.7978	0.01471432
0.798	0.01494194
0.7982	0.0151078
0.7984	0.01582701
0.7986	0.01611885
0.7988	0.01647126
0.799	0.01835359
0.7992	0.01873047
0.7994	0.01697102
0.7996	0.01633078
0.7998	0.01681079
0.8	0.01571005
0.8002	0.01482423
0.8004	0.01500104
0.8006	0.01456214
0.8008	0.01438098
0.801	0.01219916
0.8012	0.01056672
0.8014	0.009522889
0.8016	0.008123437
0.8018	0.00677008
0.802	0.005773477
0.8022	0.003259511
0.8024	0.003464307
0.8026	0.003426803
0.8028	0.002140847
0.803	-9.923874e-5
0.8032	-0.00189112
0.8034	-0.003382216
0.8036	-0.004405843
0.8038	-0.005129202
0.804	-0.008191274
0.8042	-0.008913692
0.8044	-0.009419538
0.8046	-0.008218603
0.8048	-0.00860681
0.805	-0.01068956
0.8052	-0.01050024
0.8054	-0.0111756
0.8056	-0.01206047
0.8058	-0.01328124
0.806	-0.0164809
0.8062	-0.01537007
0.8064	-0.01434571
0.8066	-0.01440703
0.8068	-0.01452521
0.807	-0.0161582
0.8072	-0.01736588
0.8074	-0.01793742
0.8076	-0.01913488
0.8078	-0.01905064
0.808	-0.01926892
0.8082	-0.01937725
0.8084	-0.01752496
0.8086	-0.01592349
0.8088	-0.01645183
0.809	-0.01500267
0.8092	-0.0141602
0.8094	-0.01388382
0.8096	-0.01342232
0.8098	-0.01112786
0.81	-0.009749993
0.8102	-0.01030931
0.8104	-0.01019164
0.8106	-0.01013244
0.8108	-0.009762857
0.811	-0.0100424
0.8112	-0.01029298
0.8114	-0.01064847
0.8116	-0.009434616
0.8118	-0.007784072
0.812	-0.005983746
0.8122	-0.005793835
0.8124	-0.00593012
0.8126	-0.003201062
0.8128	-0.001137859
0.813	0.0001131312
0.8132	0.002817498
0.8134	0.004257091
0.8136	0.004094383
0.8138	0.00533223
0.814	0.006830956
0.8142	0.008042943
0.8144	0.009800757
0.8146	0.009929155
0.8148	0.008760649
0.815	0.0105316
0.8152	0.01148819
0.8154	0.01156138
0.8156	0.01309659
0.8158	0.01497778
0.816	0.01389245
0.8162	0.01296032
0.8164	0.01454926
0.8166	0.01586902
0.8168	0.01771479
0.817	0.01808177
0.8172	0.02035662
0.8174	0.02078524
0.8176	0.02131661
0.8178	0.02283575
0.818	0.02245606
0.8182	0.02147934
0.8184	0.02033873
0.8186	0.02008558
0.8188	0.02018826
0.819	0.02061482
0.8192	0.01886306
0.8194	0.01763633
0.8196	0.0169246
0.8198	0.01574897
0.82	0.01495166
0.8202	0.01330785
0.8204	0.01160564
0.8206	0.009764158
0.8208	0.01103796
0.821	0.01152832
0.8212	0.009654365
0.8214	0.007088746
0.8216	0.00588441
0.8218	0.005434605
0.822	0.002706236
0.8222	0.002124994
0.8224	0.001374127
0.8226	0.0005709341
0.8228	-0.001583181
0.823	-0.003394119
0.8232	-0.003974598
0.8234	-0.004288753
0.8236	-0.004480879
0.8238	-0.004828057
0.824	-0.00584383
0.8242	-0.006237774
0.8244	-0.007994991
0.8246	-0.009793525
0.8248	-0.01067928
0.825	-0.01043935
0.8252	-0.01122116
0.8254	-0.0129862
0.8256	-0.01312562
0.8258	-0.01246371
0.826	-0.0127283
0.8262	-0.0138745
0.8264	-0.01555632
0.8266	-0.01576121
0.8268	-0.01659296
0.827	-0.01855776
0.8272	-0.0183653
0.8274	-0.01909487
0.8276	-0.01883422
0.8278	-0.01841751
0.828	-0.01893801
0.8282	-0.0192182
0.8284	-0.01937982
0.8286	-0.0192163
0.8288	-0.01882994
0.829	-0.01903202
0.8292	-0.01924818
0.8294	-0.01813849
0.8296	-0.01696753
0.8298	-0.01718004
0.83	-0.01527926
0.8302	-0.01396431
0.8304	-0.01293365
0.8306	-0.01276672
0.8308	-0.01095473
0.831	-0.009460585
0.8312	-0.009780353
0.8314	-0.009902949
0.8316	-0.01017681
0.8318	-0.009654042
0.832	-0.007647811
0.8322	-0.005174486
0.8324	-0.004746119
0.8326	-0.004245553
0.8328	-0.003834052
0.833	-0.003355703
0.8332	-0.003402418
0.8334	-0.001123762
0.8336	0.001610825
0.8338	0.003940428
0.834	0.005891589
0.8342	0.005444569
0.8344	0.006547942
0.8346	0.006834689
0.8348	0.007271859
0.835	0.007493861
0.8352	0.01050486
0.8354	0.01158393
0.8356	0.01262772
0.8358	0.01335034
0.836	0.01311395
0.8362	0.01368394
0.8364	0.01435845
0.8366	0.01533342
0.8368	0.01648047
0.837	0.01813526
0.8372	0.01927577
0.8374	0.01866793
0.8376	0.01905815
0.8378	0.01857683
0.838	0.01837355
0.8382	0.01929761
0.8384	0.01923279
0.8386	0.01927426
0.8388	0.01772708
0.839	0.01730622
0.8392	0.01709186
0.8394	0.01670922
0.8396	0.01704914
0.8398	0.01690096
0.84	0.01714311
0.8402	0.01649592
0.8404	0.01471278
0.8406	0.01367908
0.8408	0.01318446
0.841	0.01261479
0.8412	0.01190965
0.8414	0.01182303
0.8416	0.01001551
0.8418	0.007439197
0.842	0.006827267
0.8422	0.006289227
0.8424	0.006433395
0.8426	0.004628993
0.8428	0.003583984
0.843	0.001965965
0.8432	0.001321261
0.8434	0.001204112
0.8436	-0.0002657246
0.8438	-0.002275374
0.844	-0.002291927
0.8442	-0.004719599
0.8444	-0.004765409
0.8446	-0.005730279
0.8448	-0.007446545
0.845	-0.00750064
0.8452	-0.009313709
0.8454	-0.01234749
0.8456	-0.01315869
0.8458	-0.01310201
0.846	-0.01485162
0.8462	-0.0164668
0.8464	-0.01661888
0.8466	-0.01613321
0.8468	-0.01698498
0.847	-0.01829855
0.8472	-0.01747378
0.8474	-0.01994845
0.8476	-0.02250914
0.8478	-0.02247701
0.848	-0.02163431
0.8482	-0.0197244
0.8484	-0.01866313
0.8486	-0.0184921
0.8488	-0.01894125
0.849	-0.01867132
0.8492	-0.01746746
0.8494	-0.01771815
0.8496	-0.01733488
0.8498	-0.01577764
0.85	-0.0158963
0.8502	-0.01580476
0.8504	-0.01527024
0.8506	-0.01385363
0.8508	-0.01349807
0.851	-0.01264566
0.8512	-0.0124032
0.8514	-0.01152467
0.8516	-0.009114502
0.8518	-0.007493286
0.852	-0.005111456
0.8522	-0.004655057
0.8524	-0.003979037
0.8526	-0.001100077
0.8528	-0.0006734864
0.853	0.002186231
0.8532	0.003340511
0.8534	0.005037067
0.8536	0.00631198
0.8538	0.006220356
0.854	0.006972997
0.8542	0.008081799
0.8544	0.01107963
0.8546	0.01279646
0.8548	0.01391688
0.855	0.01625492
0.8552	0.01571774
0.8554	0.01388162
0.8556	0.01307775
0.8558	0.01214027
0.856	0.01300803
0.8562	0.01368086
0.8564	0.01413105
0.8566	0.01421209
0.8568	0.01528645
0.857	0.0175947
0.8572	0.01599137
0.8574	0.01478433
0.8576	0.01568299
0.8578	0.01739354
0.858	0.01808584
0.8582	0.01688045
0.8584	0.01638544
0.8586	0.01541627
0.8588	0.01431291
0.859	0.01300139
0.8592	0.01243829
0.8594	0.01105728
0.8596	0.0086087
0.8598	0.006591846
0.86	0.005957709
0.8602	0.005224157
0.8604	0.004023864
0.8606	0.005615418
0.8608	0.005780868
0.861	0.006434402
0.8612	0.006666776
0.8614	0.005472056
0.8616	0.005886077
0.8618	0.005757751
0.862	0.004243503
0.8622	0.002642968
0.8624	0.002760024
0.8626	0.001126902
0.8628	0.0004725454
0.863	-0.001233724
0.8632	-0.002570584
0.8634	-0.003629713
0.8636	-0.004861922
0.8638	-0.005318753
0.864	-0.00562902
0.8642	-0.00756174
0.8644	-0.007856448
0.8646	-0.009035436
0.8648	-0.01040892
0.865	-0.01158314
0.8652	-0.01170308
0.8654	-0.01204813
0.8656	-0.01249812
0.8658	-0.01393671
0.866	-0.01453149
0.8662	-0.01402803
0.8664	-0.01427402
0.8666	-0.01341366
0.8668	-0.01457864
0.867	-0.01652043
0.8672	-0.0178034
0.8674	-0.01784066
0.8676	-0.01753294
0.8678	-0.01777222
0.868	-0.01823541
0.8682	-0.01766007
0.8684	-0.01658005
0.8686	-0.01680813
0.8688	-0.01602311
0.869	-0.01408782
0.8692	-0.0144671
0.8694	-0.01516361
0.8696	-0.01520798
0.8698	-0.01493368
0.87	-0.01382936
0.8702	-0.01284075
0.8704	-0.009052328
0.8706	-0.007627555
0.8708	-0.009209654
0.871	-0.00843861
0.8712	-0.00789029
0.8714	-0.008516833
0.8716	-0.007921816
0.8718	-0.006113578
0.872	-0.003869707
0.8722	-0.001705812
0.8724	-0.00129425
0.8726	3.895771e-6
0.8728	0.0008873063
0.873	0.001676334
0.8732	0.003309755
0.8734	0.005198693
0.8736	0.005218816
0.8738	0.005439295
0.874	0.006917416
0.8742	0.008210056
0.8744	0.009752383
0.8746	0.009684145
0.8748	0.01094086
0.875	0.01320833
0.8752	0.01407861
0.8754	0.01337071
0.8756	0.01414026
0.8758	0.0148007
0.876	0.01421484
0.8762	0.01565157
0.8764	0.01657897
0.8766	0.01763135
0.8768	0.01779626
0.877	0.01829167
0.8772	0.01794613
0.8774	0.01878061
0.8776	0.02028732
0.8778	0.02052408
0.878	0.0202564
0.8782	0.01801248
0.8784	0.01690988
0.8786	0.01631785
0.8788	0.01680824
0.879	0.01622331
0.8792	0.01474345
0.8794	0.01296249
0.8796	0.01118908
0.8798	0.01012294
0.88	0.009369079
0.8802	0.01025032
0.8804	0.01057213
0.8806	0.01126465
0.8808	0.01002477
0.881	0.007218165
0.8812	0.007715438
0.8814	0.007686477
0.8816	0.005830222
0.8818	0.004544082
0.882	0.004095791
0.8822	0.003662709
0.8824	0.00305752
0.8826	0.001535018
0.8828	0.0002228067
0.883	-5.203587e-6
0.8832	-0.002692866
0.8834	-0.003583867
0.8836	-0.003492885
0.8838	-0.004159839
0.884	-0.004696298
0.8842	-0.005792383
0.8844	-0.007077545
0.8846	-0.008036958
0.8848	-0.00882401
0.885	-0.009478682
0.8852	-0.01117856
0.8854	-0.01414785
0.8856	-0.01527908
0.8858	-0.01485145
0.886	-0.01543828
0.8862	-0.01452704
0.8864	-0.01503345
0.8866	-0.01602965
0.8868	-0.01706873
0.887	-0.01725054
0.8872	-0.01790585
0.8874	-0.01784787
0.8876	-0.01877246
0.8878	-0.01907369
0.888	-0.01912219
0.8882	-0.02049497
0.8884	-0.02048426
0.8886	-0.02088572
0.8888	-0.01927167
0.889	-0.01903292
0.8892	-0.01924501
0.8894	-0.01820533
0.8896	-0.01760747
0.8898	-0.01536426
0.89	-0.01271306
0.8902	-0.01203643
0.8904	-0.01221983
0.8906	-0.01281106
0.8908	-0.01336581
0.891	-0.01284672
0.8912	-0.01114765
0.8914	-0.008194984
0.8916	-0.007277939
0.8918	-0.005798606
0.892	-0.004900183
0.8922	-0.003539051
0.8924	-0.003342982
0.8926	-0.002822029
0.8928	-0.002369916
0.893	0.0004258563
0.8932	0.001459245
0.8934	0.002111838
0.8936	0.00389319
0.8938	0.003669937
0.894	0.005261457
0.8942	0.007166086
0.8944	0.00748687
0.8946	0.00880629
0.8948	0.01060676
0.895	0.01168477
0.8952	0.01274504
0.8954	0.01292657
0.8956	0.01431307
0.8958	0.01530243
0.896	0.01634746
0.8962	0.01781036
0.8964	0.01714963
0.8966	0.01722966
0.8968	0.01793497
0.897	0.01763004
0.8972	0.01726435
0.8974	0.01750817
0.8976	0.01644523
0.8978	0.01670523
0.898	0.01583976
0.8982	0.01572796
0.8984	0.01625337
0.8986	0.01711547
0.8988	0.01725833
0.899	0.01755342
0.8992	0.01709304
0.8994	0.01683132
0.8996	0.01607662
0.8998	0.01479059
0.9	0.01471891
0.9002	0.01473971
0.9004	0.01496202
0.9006	0.01342772
0.9008	0.01217251
0.901	0.01245855
0.9012	0.01319612
0.9014	0.01195408
0.9016	0.01013463
0.9018	0.008077878
0.902	0.005908647
0.9022	0.004765342
0.9024	0.002320167
0.9026	0.0006384967
0.9028	-0.00055365
0.903	-0.0005690264
0.9032	-0.001592893
0.9034	-0.002806695
0.9036	-0.004498022
0.9038	-0.005681065
0.904	-0.007185917
0.9042	-0.01026398
0.9044	-0.01062808
0.9046	-0.01129983
0.9048	-0.01113378
0.905	-0.01138281
0.9052	-0.01275089
0.9054	-0.01393388
0.9056	-0.01631384
0.9058	-0.01734413
0.906	-0.01872411
0.9062	-0.0194394
0.9064	-0.01859194
0.9066	-0.01889796
0.9068	-0.01951224
0.907	-0.02013549
0.9072	-0.01948762
0.9074	-0.0197572
0.9076	-0.02133648
0.9078	-0.02172701
0.908	-0.01974352
0.9082	-0.01825802
0.9084	-0.01890742
0.9086	-0.01927371
0.9088	-0.01867996
0.909	-0.01941732
0.9092	-0.01917294
0.9094	-0.01894963
0.9096	-0.0173947
0.9098	-0.01510589
0.91	-0.01387881
0.9102	-0.01243723
0.9104	-0.01210778
0.9106	-0.01397995
0.9108	-0.01385356
0.911	-0.0128902
0.9112	-0.01039888
0.9114	-0.008608904
0.9116	-0.007681613
0.9118	-0.006088411
0.912	-0.006424397
0.9122	-0.005192309
0.9124	-0.003240787
0.9126	-0.002219409
0.9128	-0.002099631
0.913	-0.0008771074
0.9132	0.002099893
0.9134	0.00315965
0.9136	0.003769702
0.9138	0.005048856
0.914	0.005943313
0.9142	0.00694975
0.9144	0.00911458
0.9146	0.01048563
0.9148	0.01075595
0.915	0.01256104
0.9152	0.01418306
0.9154	0.01414416
0.9156	0.01376272
0.9158	0.01515019
0.916	0.01745527
0.9162	0.02028477
0.9164	0.02099665
0.9166	0.02049988
0.9168	0.01931349
0.917	0.01937604
0.9172	0.0215819
0.9174	0.02253514
0.9176	0.02175477
0.9178	0.02177169
0.918	0.02131927
0.9182	0.02285751
0.9184	0.0232724
0.9186	0.02309417
0.9188	0.0234981
0.919	0.02206037
0.9192	0.019441
0.9194	0.01902262
0.9196	0.01846128
0.9198	0.01750645
0.92	0.01637094
0.9202	0.01623775
0.9204	0.01504153
0.9206	0.01257261
0.9208	0.01062634
0.921	0.009262058
0.9212	0.008616374
0.9214	0.008192955
0.9216	0.008347977
0.9218	0.007364339
0.922	0.005009838
0.9222	0.00399995
0.9224	0.003577282
0.9226	0.001791416
0.9228	0.0005634723
0.923	-0.001665129
0.9232	-0.002268013
0.9234	-0.002540846
0.9236	-0.003782426
0.9238	-0.004229656
0.924	-0.005858303
0.9242	-0.0079701
0.9244	-0.01000043
0.9246	-0.01113649
0.9248	-0.01261914
0.925	-0.01349764
0.9252	-0.01332543
0.9254	-0.01399554
0.9256	-0.01546011
0.9258	-0.01761818
0.926	-0.01735387
0.9262	-0.01771676
0.9264	-0.01822978
0.9266	-0.01910494
0.9268	-0.01868602
0.927	-0.02066155
0.9272	-0.02116168
0.9274	-0.02184132
0.9276	-0.02316431
0.9278	-0.02251683
0.928	-0.02212308
0.9282	-0.02033342
0.9284	-0.01996609
0.9286	-0.01912078
0.9288	-0.01806974
0.929	-0.0177667
0.9292	-0.01820893
0.9294	-0.01849138
0.9296	-0.0165093
0.9298	-0.01604674
0.93	-0.01556085
0.9302	-0.01590539
0.9304	-0.01584316
0.9306	-0.01511628
0.9308	-0.01505932
0.931	-0.01280213
0.9312	-0.01041322
0.9314	-0.009492403
0.9316	-0.0083939
0.9318	-0.008039095
0.932	-0.006672492
0.9322	-0.005553886
0.9324	-0.005062932
0.9326	-0.003714888
0.9328	-0.002517801
0.933	-0.0006145959
0.9332	8.127931e-5
0.9334	0.0008732181
0.9336	0.003938664
0.9338	0.005476948
0.934	0.006356899
0.9342	0.008446946
0.9344	0.009270907
0.9346	0.009553469
0.9348	0.009684356
0.935	0.01036246
0.9352	0.01123182
0.9354	0.01282471
0.9356	0.01308015
0.9358	0.01245855
0.936	0.01270176
0.9362	0.01614296
0.9364	0.01695703
0.9366	0.01736173
0.9368	0.01857775
0.937	0.01869034
0.9372	0.01891671
0.9374	0.01994768
0.9376	0.02088599
0.9378	0.02214057
0.938	0.02248553
0.9382	0.02170907
0.9384	0.02178987
0.9386	0.02134444
0.9388	0.02165016
0.939	0.02148149
0.9392	0.02092242
0.9394	0.02044074
0.9396	0.02027217
0.9398	0.01921641
0.94	0.01740133
0.9402	0.01684132
0.9404	0.01613979
0.9406	0.01438586
0.9408	0.01520343
0.941	0.01339533
0.9412	0.01287358
0.9414	0.01209358
0.9416	0.01079925
0.9418	0.01035288
0.942	0.008526423
0.9422	0.006344153
0.9424	0.006131564
0.9426	0.006156715
0.9428	0.004872852
0.943	0.004148463
0.9432	0.002424203
0.9434	0.0007121248
0.9436	-0.001903018
0.9438	-0.005134249
0.944	-0.006107848
0.9442	-0.008148452
0.9444	-0.009572908
0.9446	-0.01110046
0.9448	-0.01203162
0.945	-0.01250736
0.9452	-0.01373694
0.9454	-0.01489924
0.9456	-0.01603413
0.9458	-0.01616192
0.946	-0.01669262
0.9462	-0.01816899
0.9464	-0.01805834
0.9466	-0.01884953
0.9468	-0.01990272
0.947	-0.01979728
0.9472	-0.0193271
0.9474	-0.02051036
0.9476	-0.0206083
0.9478	-0.02063444
0.948	-0.02088333
0.9482	-0.02053866
0.9484	-0.0206397
0.9486	-0.02033863
0.9488	-0.02076878
0.949	-0.01888756
0.9492	-0.01683219
0.9494	-0.01660806
0.9496	-0.01677752
0.9498	-0.01601068
0.95	-0.01514973
0.9502	-0.0143618
0.9504	-0.01280698
0.9506	-0.01169105
0.9508	-0.01128972
0.951	-0.01012994
0.9512	-0.008848906
0.9514	-0.007472087
0.9516	-0.007557296
0.9518	-0.007607823
0.952	-0.005359868
0.9522	-0.004089687
0.9524	-0.002797566
0.9526	-0.0007712998
0.9528	-0.0008186735
0.953	-0.0002772188
0.9532	0.001899629
0.9534	0.003251283
0.9536	0.003672544
0.9538	0.004265311
0.954	0.005194046
0.9542	0.005748441
0.9544	0.007148549
0.9546	0.009744689
0.9548	0.01031797
0.955	0.009845186
0.9552	0.01061094
0.9554	0.01235116
0.9556	0.01396185
0.9558	0.0151447
0.956	0.01520428
0.9562	0.01543585
0.9564	0.01576476
0.9566	0.01572414
0.9568	0.01530045
0.957	0.01441233
0.9572	0.0147232
0.9574	0.01604697
0.9576	0.01699664
0.9578	0.01699289
0.958	0.01623038
0.9582	0.01497041
0.9584	0.01499935
0.9586	0.01549063
0.9588	0.01472601
0.959	0.01486905
0.9592	0.01562926
0.9594	0.01511275
0.9596	0.01416587
0.9598	0.01436963
0.96	0.01448596
0.9602	0.01387504
0.9604	0.01329454
0.9606	0.01369856
0.9608	0.01269394
0.961	0.01175014
0.9612	0.01157237
0.9614	0.00976612
0.9616	0.008200566
0.9618	0.006825441
0.962	0.005188901
0.9622	0.005086683
0.9624	0.004660643
0.9626	0.004614149
0.9628	0.003446675
0.963	0.00140715
0.9632	0.0001255777
0.9634	-0.0007013225
0.9636	-0.002982663
0.9638	-0.004882868
0.964	-0.006141677
0.9642	-0.009278445
0.9644	-0.0103074
0.9646	-0.01132257
0.9648	-0.01150354
0.965	-0.01157678
0.9652	-0.01105266
0.9654	-0.01061804
0.9656	-0.01132814
0.9658	-0.0119828
0.966	-0.01164957
0.9662	-0.01217784
0.9664	-0.0149845
0.9666	-0.01549352
0.9668	-0.01493528
0.967	-0.01446706
0.9672	-0.01618374
0.9674	-0.01801785
0.9676	-0.01791509
0.9678	-0.01814743
0.968	-0.01760881
0.9682	-0.01837927
0.9684	-0.01805492
0.9686	-0.0175806
0.9688	-0.01641601
0.969	-0.01572628
0.9692	-0.01512482
0.9694	-0.01523482
0.9696	-0.01461765
0.9698	-0.01360022
0.97	-0.01302901
0.9702	-0.01317392
0.9704	-0.01166212
0.9706	-0.01137442
0.9708	-0.01220305
0.971	-0.01086001
0.9712	-0.01156836
0.9714	-0.01026293
0.9716	-0.01012312
0.9718	-0.009008314
0.972	-0.006191056
0.9722	-0.005053749
0.9724	-0.00532935
0.9726	-0.003353435
0.9728	-0.000608544
0.973	0.0002467221
0.9732	0.003327832
0.9734	0.006101666
0.9736	0.008673597
0.9738	0.009124932
0.974	0.01035617
0.9742	0.01147995
0.9744	0.01352036
0.9746	0.0149992
0.9748	0.01590996
0.975	0.01572056
0.9752	0.0159788
0.9754	0.01837616
0.9756	0.01912362
0.9758	0.01918542
0.976	0.02070914
0.9762	0.0218554
0.9764	0.02242635
0.9766	0.02294344
0.9768	0.02102979
0.977	0.02052921
0.9772	0.02026376
0.9774	0.01979226
0.9776	0.0177554
0.9778	0.01587176
0.978	0.01493813
0.9782	0.01270856
0.9784	0.01029842
0.9786	0.01012776
0.9788	0.0105911
0.979	0.008457138
0.9792	0.0071191
0.9794	0.006200841
0.9796	0.004675928
0.9798	0.004242635
0.98	0.002549553
0.9802	0.002454987
0.9804	0.003742832
0.9806	0.003790874
0.9808	0.003882923
0.981	0.004005079
0.9812	0.002723676
0.9814	0.001665293
0.9816	0.001696632
0.9818	0.0002186363
0.982	0.0004420943
0.9822	0.00124725
0.9824	0.00117806
0.9826	0.0004178626
0.9828	-0.0001453997
0.983	-0.0009606695
0.9832	-0.002320952
0.9834	-0.002342227
0.9836	-0.004503214
0.9838	-0.005849402
0.984	-0.0060274
0.9842	-0.007804959
0.9844	-0.009546125
0.9846	-0.01023716
0.9848	-0.01147224
0.985	-0.01221299
0.9852	-0.01083999
0.9854	-0.009873816
0.9856	-0.01044433
0.9858	-0.01264059
0.986	-0.01248259
0.9862	-0.01293507
0.9864	-0.01369543
0.9866	-0.01540576
0.9868	-0.01555567
0.987	-0.01554498
0.9872	-0.01726359
0.9874	-0.01619392
0.9876	-0.01765112
0.9878	-0.01786891
0.988	-0.01562708
0.9882	-0.01471097
0.9884	-0.01492606
0.9886	-0.01656584
0.9888	-0.01681065
0.989	-0.01674808
0.9892	-0.01679696
0.9894	-0.01639887
0.9896	-0.01576175
0.9898	-0.0149183
0.99	-0.01382076
0.9902	-0.01309947
0.9904	-0.01454358
0.9906	-0.01432879
0.9908	-0.01229437
0.991	-0.01078284
0.9912	-0.00990639
0.9914	-0.009553855
0.9916	-0.009435479
0.9918	-0.00604751
0.992	-0.002638606
0.9922	-0.001644955
0.9924	-0.001878062
0.9926	-0.0008587955
0.9928	0.001212782
0.993	0.003384156
0.9932	0.003523766
0.9934	0.003276555
0.9936	0.003498971
0.9938	0.006720457
0.994	0.009242422
0.9942	0.01003327
0.9944	0.01065155
0.9946	0.009295329
0.9948	0.01075983
0.995	0.01251081
0.9952	0.01179938
0.9954	0.01179787
0.9956	0.01273158
0.9958	0.01455673
0.996	0.0146538
0.9962	0.01524282
0.9964	0.01759439
0.9966	0.019104
0.9968	0.02028626
0.997	0.02300388
0.9972	0.02365731
0.9974	0.02372807
0.9976	0.02225501
0.9978	0.02170982
0.998	0.02219551
0.9982	0.02087539
0.9984	0.02133795
0.9986	0.02247737
0.9988	0.02234011
0.999	0.02124053
0.9992	0.02013775
0.9994	0.0199725
0.9996	0.01966909
0.9998	0.01873455
1	0.01806035
1.0002	0.01529025
1.0004	0.01247759
1.0006	0.01125778
1.0008	0.01111048
1.001	0.01072095
1.0012	0.008473211
1.0014	0.007688604
1.0016	0.006676294
1.0018	0.005708909
1.002	0.005461789
1.0022	0.005004942
1.0024	0.004929935
1.0026	0.003594856
1.0028	0.001828933
1.003	0.001642996
1.0032	0.0005344332
1.0034	-0.002266756
1.0036	-0.002869259
1.0038	-0.002806502
1.004	-0.004587999
1.0042	-0.006524269
1.0044	-0.008203665
1.0046	-0.01026809
1.0048	-0.009917488
1.005	-0.009358157
1.0052	-0.01021238
1.0054	-0.01068652
1.0056	-0.01394853
1.0058	-0.01513486
1.006	-0.01558934
1.0062	-0.01650197
1.0064	-0.0146001
1.0066	-0.01476379
1.0068	-0.01503092
1.007	-0.01546571
1.0072	-0.01599758
1.0074	-0.01710539
1.0076	-0.01838384
1.0078	-0.01862516
1.008	-0.01849709
1.0082	-0.02156802
1.0084	-0.02180686
1.0086	-0.02165231
1.0088	-0.02215199
1.009	-0.02192626
1.0092	-0.01971119
1.0094	-0.01806428
1.0096	-0.01840364
1.0098	-0.017127
1.01	-0.0167858
1.0102	-0.01661486
1.0104	-0.01592991
1.0106	-0.01539635
1.0108	-0.01390921
1.011	-0.01271814
1.0112	-0.0107892
1.0114	-0.009335397
1.0116	-0.008307436
1.0118	-0.006918247
1.012	-0.005879847
1.0122	-0.005452483
1.0124	-0.003671596
1.0126	-0.002331367
1.0128	-0.001378276
1.013	-0.001383501
1.0132	-0.001078152
1.0134	-0.0003704392
1.0136	-0.0008156865
1.0138	0.00118239
1.014	0.003353161
1.0142	0.003817357
1.0144	0.004360016
1.0146	0.006121735
1.0148	0.005806725
1.015	0.00688137
1.0152	0.008280424
1.0154	0.009455697
1.0156	0.01024861
1.0158	0.01100156
1.016	0.01097248
1.0162	0.01178524
1.0164	0.01298711
1.0166	0.01438
1.0168	0.01409607
1.017	0.0141712
1.0172	0.01581627
1.0174	0.01549984
1.0176	0.01378561
1.0178	0.01512204
1.018	0.01642879
1.0182	0.01740101
1.0184	0.01700151
1.0186	0.01788319
1.0188	0.0181014
1.019	0.01565374
1.0192	0.01453806
1.0194	0.01647974
1.0196	0.01600197
1.0198	0.01447198
1.02	0.01361026
1.0202	0.01299463
1.0204	0.0123552
1.0206	0.01185434
1.0208	0.0109868
1.021	0.01001249
1.0212	0.01095969
1.0214	0.009787294
1.0216	0.008168055
1.0218	0.008003202
1.022	0.006398351
1.0222	0.005414857
1.0224	0.004990138
1.0226	0.003730779
1.0228	0.0009382204
1.023	0.0001076728
1.0232	-0.0005091718
1.0234	-0.00162575
1.0236	-0.003136805
1.0238	-0.004580325
1.024	-0.006272064
1.0242	-0.006861455
1.0244	-0.00841595
1.0246	-0.00914402
1.0248	-0.009720563
1.025	-0.01151615
1.0252	-0.01087445
1.0254	-0.01221666
1.0256	-0.01249194
1.0258	-0.0128087
1.026	-0.01470413
1.0262	-0.01535394
1.0264	-0.01517842
1.0266	-0.0155854
1.0268	-0.01655845
1.027	-0.01631904
1.0272	-0.01729186
1.0274	-0.01781078
1.0276	-0.01775377
1.0278	-0.01651358
1.028	-0.01808096
1.0282	-0.01927396
1.0284	-0.01891668
1.0286	-0.01935231
1.0288	-0.01836543
1.029	-0.01886448
1.0292	-0.01933915
1.0294	-0.01746066
1.0296	-0.01698026
1.0298	-0.01662917
1.03	-0.01517484
1.0302	-0.01428146
1.0304	-0.01347818
1.0306	-0.01224032
1.0308	-0.01189065
1.031	-0.01106941
1.0312	-0.009922954
1.0314	-0.009630047
1.0316	-0.009847332
1.0318	-0.008330491
1.032	-0.005677735
1.0322	-0.003142719
1.0324	-0.002020377
1.0326	-0.0004836003
1.0328	0.001858016
1.033	0.003034488
1.0332	0.004715495
1.0334	0.004767531
1.0336	0.006064544
1.0338	0.008279029
1.034	0.01000812
1.0342	0.01114499
1.0344	0.01250207
1.0346	0.01224434
1.0348	0.01167715
1.035	0.0141343
1.0352	0.01324757
1.0354	0.01440495
1.0356	0.01610857
1.0358	0.01671482
1.036	0.01740235
1.0362	0.01729194
1.0364	0.0179659
1.0366	0.01857794
1.0368	0.01825373
1.037	0.01815088
1.0372	0.01855845
1.0374	0.01956362
1.0376	0.01853923
1.0378	0.01979105
1.038	0.0201555
1.0382	0.02050547
1.0384	0.0207341
1.0386	0.02058232
1.0388	0.0194025
1.039	0.01907201
1.0392	0.01951086
1.0394	0.01755297
1.0396	0.01541213
1.0398	0.01249678
1.04	0.01167935
1.0402	0.01320401
1.0404	0.01221954
1.0406	0.01102439
1.0408	0.01080241
1.041	0.009568552
1.0412	0.008402865
1.0414	0.006499603
1.0416	0.004324466
1.0418	0.002079628
1.042	0.003527997
1.0422	0.003442027
1.0424	0.002207212
1.0426	0.0006390333
1.0428	-0.001067389
1.043	-0.001173861
1.0432	-0.002325545
1.0434	-0.002959069
1.0436	-0.003391402
1.0438	-0.00480156
1.044	-0.007080518
1.0442	-0.008635524
1.0444	-0.009824156
1.0446	-0.01233076
1.0448	-0.01170304
1.045	-0.01113865
1.0452	-0.01149194
1.0454	-0.0123223
1.0456	-0.01407832
1.0458	-0.0144215
1.046	-0.01534959
1.0462	-0.01563943
1.0464	-0.01667303
1.0466	-0.01729291
1.0468	-0.01781321
1.047	-0.01674607
1.0472	-0.0176902
1.0474	-0.01878141
1.0476	-0.01883166
1.0478	-0.01907589
1.048	-0.01844031
1.0482	-0.01978827
1.0484	-0.01838475
1.0486	-0.01621239
1.0488	-0.01708313
1.049	-0.01832167
1.0492	-0.0169522
1.0494	-0.01558723
1.0496	-0.0149847
1.0498	-0.01408457
1.05	-0.01159759
1.0502	-0.01136794
1.0504	-0.01145432
1.0506	-0.01207839
1.0508	-0.01078991
1.051	-0.01065089
1.0512	-0.01229225
1.0514	-0.0100436
1.0516	-0.007633342
1.0518	-0.007080957
1.052	-0.005900765
1.0522	-0.004981698
1.0524	-0.004573572
1.0526	-0.003495187
1.0528	-0.001833571
1.053	-0.0003448166
1.0532	0.0003828916
1.0534	0.001344868
1.0536	0.001870282
1.0538	0.00274362
1.054	0.00466129
1.0542	0.007393781
1.0544	0.008297794
1.0546	0.00841003
1.0548	0.00882041
1.055	0.0102408
1.0552	0.01176067
1.0554	0.01246936
1.0556	0.01234352
1.0558	0.01365699
1.056	0.01419479
1.0562	0.01454828
1.0564	0.01537998
1.0566	0.01442745
1.0568	0.01471909
1.057	0.01616298
1.0572	0.01709192
1.0574	0.01814775
1.0576	0.01816295
1.0578	0.01830136
1.058	0.01905328
1.0582	0.01825018
1.0584	0.01896973
1.0586	0.01883343
1.0588	0.01834972
1.059	0.017771
1.0592	0.01808379
1.0594	0.019154
1.0596	0.01765658
1.0598	0.01647981
1.06	0.01561439
1.0602	0.01595957
1.0604	0.01639018
1.0606	0.01628328
1.0608	0.01471052
1.061	0.0139472
1.0612	0.01276367
1.0614	0.009465192
1.0616	0.007186718
1.0618	0.005984705
1.062	0.006532385
1.0622	0.006131859
1.0624	0.005398574
1.0626	0.002693077
1.0628	-8.138992e-5
1.063	-0.001772791
1.0632	-0.003057562
1.0634	-0.003185923
1.0636	-0.003775954
1.0638	-0.004691119
1.064	-0.005293685
1.0642	-0.005989193
1.0644	-0.006735693
1.0646	-0.008065919
1.0648	-0.008123697
1.065	-0.008460503
1.0652	-0.009315656
1.0654	-0.008875454
1.0656	-0.009326524
1.0658	-0.009536857
1.066	-0.009625593
1.0662	-0.0113346
1.0664	-0.01330051
1.0666	-0.01377243
1.0668	-0.01437306
1.067	-0.01422411
1.0672	-0.01460669
1.0674	-0.01484127
1.0676	-0.0162567
1.0678	-0.0171844
1.068	-0.0160997
1.0682	-0.01746602
1.0684	-0.01788047
1.0686	-0.01811195
1.0688	-0.01760895
1.069	-0.01789796
1.0692	-0.01620046
1.0694	-0.01456947
1.0696	-0.0148471
1.0698	-0.01563761
1.07	-0.01560631
1.0702	-0.01580005
1.0704	-0.01557757
1.0706	-0.01364142
1.0708	-0.01212388
1.071	-0.01250687
1.0712	-0.01328706
1.0714	-0.01329421
1.0716	-0.01109949
1.0718	-0.009103075
1.072	-0.006575965
1.0722	-0.006778248
1.0724	-0.008033964
1.0726	-0.006062018
1.0728	-0.005142971
1.073	-0.006404394
1.0732	-0.006033434
1.0734	-0.004182904
1.0736	-0.002791774
1.0738	-0.0009167106
1.074	0.0009379689
1.0742	0.002272048
1.0744	0.003288909
1.0746	0.004505762
1.0748	0.006023601
1.075	0.008254284
1.0752	0.009588618
1.0754	0.01046381
1.0756	0.0124256
1.0758	0.01222681
1.076	0.01101119
1.0762	0.01253994
1.0764	0.01323405
1.0766	0.01187107
1.0768	0.01243281
1.077	0.01229337
1.0772	0.01419644
1.0774	0.01672093
1.0776	0.01636319
1.0778	0.01638483
1.078	0.01792373
1.0782	0.01805798
1.0784	0.01730959
1.0786	0.01538722
1.0788	0.01457945
1.079	0.0135674
1.0792	0.01335896
1.0794	0.01474231
1.0796	0.01274962
1.0798	0.01232099
1.08	0.01206487
1.0802	0.01072064
1.0804	0.01023762
1.0806	0.01032494
1.0808	0.009283171
1.081	0.009450205
1.0812	0.01004666
1.0814	0.008727355
1.0816	0.006586046
1.0818	0.004861151
1.082	0.004548999
1.0822	0.003734765
1.0824	0.002744842
1.0826	0.002265391
1.0828	3.177099e-5
1.083	-0.001850181
1.0832	-0.002274076
1.0834	-0.003763343
1.0836	-0.005806203
1.0838	-0.00727656
1.084	-0.007991764
1.0842	-0.0079587
1.0844	-0.008204916
1.0846	-0.00810209
1.0848	-0.009880519
1.085	-0.01092213
1.0852	-0.01187212
1.0854	-0.01410331
1.0856	-0.01402062
1.0858	-0.01397708
1.086	-0.01473434
1.0862	-0.01485606
1.0864	-0.01521081
1.0866	-0.01647456
1.0868	-0.01591646
1.087	-0.01610756
1.0872	-0.01748421
1.0874	-0.0170581
1.0876	-0.01650644
1.0878	-0.01562803
1.088	-0.01477131
1.0882	-0.01536593
1.0884	-0.01485921
1.0886	-0.01337156
1.0888	-0.01408102
1.089	-0.01353383
1.0892	-0.01245778
1.0894	-0.01230759
1.0896	-0.01215599
1.0898	-0.01211367
1.09	-0.01254893
1.0902	-0.01162327
1.0904	-0.01145825
1.0906	-0.009270731
1.0908	-0.007476761
1.091	-0.008515289
1.0912	-0.008094694
1.0914	-0.006988446
1.0916	-0.006921159
1.0918	-0.007869194
1.092	-0.005106227
1.0922	-0.002497453
1.0924	-0.0004350852
1.0926	-0.0001454385
1.0928	-0.0009646058
1.093	-0.0005377546
1.0932	0.0008760653
1.0934	0.001825424
1.0936	0.003279481
1.0938	0.002824211
1.094	0.00309205
1.0942	0.005091805
1.0944	0.005955878
1.0946	0.007744477
1.0948	0.008942753
1.095	0.00892062
1.0952	0.01019164
1.0954	0.01016094
1.0956	0.008967295
1.0958	0.008237803
1.096	0.008529512
1.0962	0.01009075
1.0964	0.01025664
1.0966	0.01218971
1.0968	0.01449871
1.097	0.01643762
1.0972	0.0174599
1.0974	0.01710552
1.0976	0.01779455
1.0978	0.01876612
1.098	0.01828091
1.0982	0.01843192
1.0984	0.01848124
1.0986	0.02004628
1.0988	0.02036375
1.099	0.0197717
1.0992	0.0175885
1.0994	0.01644309
1.0996	0.01678266
1.0998	0.0158732
1.1	0.01455656
1.1002	0.01381736
1.1004	0.01395158
1.1006	0.01246656
1.1008	0.01237372
1.101	0.01338913
1.1012	0.01237926
1.1014	0.01004035
1.1016	0.007950528
1.1018	0.00591509
1.102	0.005071926
1.1022	0.006314612
1.1024	0.007203901
1.1026	0.005418922
1.1028	0.002299404
1.103	0.0009897675
1.1032	0.0008637878
1.1034	0.0001367752
1.1036	-0.001421258
1.1038	-0.002585121
1.104	-0.002330933
1.1042	-0.002740302
1.1044	-0.005954157
1.1046	-0.007606031
1.1048	-0.007165096
1.105	-0.008839093
1.1052	-0.009637381
1.1054	-0.01032473
1.1056	-0.01183707
1.1058	-0.01246998
1.106	-0.01276401
1.1062	-0.01288432
1.1064	-0.0129706
1.1066	-0.01402425
1.1068	-0.01507664
1.107	-0.01388336
1.1072	-0.0141942
1.1074	-0.01498558
1.1076	-0.01480854
1.1078	-0.01448352
1.108	-0.01484832
1.1082	-0.01507977
1.1084	-0.01396178
1.1086	-0.01467078
1.1088	-0.01559662
1.109	-0.0150897
1.1092	-0.01591939
1.1094	-0.01595305
1.1096	-0.01639279
1.1098	-0.01493191
1.11	-0.01360974
1.1102	-0.0127456
1.1104	-0.01331065
1.1106	-0.01317501
1.1108	-0.01195478
1.111	-0.01164965
1.1112	-0.01079982
1.1114	-0.009081964
1.1116	-0.008624708
1.1118	-0.006529766
1.112	-0.004283656
1.1122	-0.004692263
1.1124	-0.00429106
1.1126	-0.003421059
1.1128	-0.00285023
1.113	-0.002143542
1.1132	0.0005651598
1.1134	0.003397399
1.1136	0.005683751
1.1138	0.006358507
1.114	0.006438917
1.1142	0.007559493
1.1144	0.008795449
1.1146	0.007650366
1.1148	0.008767392
1.115	0.01116149
1.1152	0.01214611
1.1154	0.0117568
1.1156	0.01260092
1.1158	0.0128452
1.116	0.0141552
1.1162	0.01475113
1.1164	0.01683088
1.1166	0.01819285
1.1168	0.01830817
1.117	0.01773714
1.1172	0.01867664
1.1174	0.01854927
1.1176	0.01749702
1.1178	0.01794463
1.118	0.01802004
1.1182	0.0183315
1.1184	0.01873299
1.1186	0.01849916
1.1188	0.01795623
1.119	0.02038817
1.1192	0.02089977
1.1194	0.01990095
1.1196	0.01945142
1.1198	0.01783806
1.12	0.01757227
1.1202	0.01584151
1.1204	0.01391518
1.1206	0.01355011
1.1208	0.01210818
1.121	0.01093207
1.1212	0.00998497
1.1214	0.00891829
1.1216	0.008437981
1.1218	0.007381474
1.122	0.006741765
1.1222	0.005294718
1.1224	0.003512482
1.1226	0.002295908
1.1228	0.0001662478
1.123	-0.0008394267
1.1232	-0.002273739
1.1234	-0.002912681
1.1236	-0.003388576
1.1238	-0.003568331
1.124	-0.005487065
1.1242	-0.008324991
1.1244	-0.009596814
1.1246	-0.00928129
1.1248	-0.009367103
1.125	-0.009792661
1.1252	-0.0109938
1.1254	-0.01196276
1.1256	-0.01300357
1.1258	-0.01357902
1.126	-0.01426669
1.1262	-0.01674847
1.1264	-0.01656824
1.1266	-0.01702652
1.1268	-0.01711804
1.127	-0.01796416
1.1272	-0.01809154
1.1274	-0.01798264
1.1276	-0.01775076
1.1278	-0.01737397
1.128	-0.01657982
1.1282	-0.0167562
1.1284	-0.01674736
1.1286	-0.01722649
1.1288	-0.01649468
1.129	-0.01680851
1.1292	-0.01691761
1.1294	-0.01647515
1.1296	-0.01475047
1.1298	-0.01485479
1.13	-0.01485164
1.1302	-0.01493387
1.1304	-0.01448447
1.1306	-0.01418282
1.1308	-0.01473858
1.131	-0.01295069
1.1312	-0.01178186
1.1314	-0.01040853
1.1316	-0.01098404
1.1318	-0.01010215
1.132	-0.008185841
1.1322	-0.006616878
1.1324	-0.005735521
1.1326	-0.004624499
1.1328	-0.003425982
1.133	-0.002475361
1.1332	-0.001801012
1.1334	0.0006928177
1.1336	0.003501661
1.1338	0.004534614
1.134	0.004740559
1.1342	0.005620148
1.1344	0.008227433
1.1346	0.008868439
1.1348	0.008084845
1.135	0.008884738
1.1352	0.01129406
1.1354	0.01194455
1.1356	0.01189619
1.1358	0.01230244
1.136	0.01292471
1.1362	0.01430296
1.1364	0.01456175
1.1366	0.01463669
1.1368	0.0136685
1.137	0.01331402
1.1372	0.01652369
1.1374	0.01832041
1.1376	0.01910688
1.1378	0.01919389
1.138	0.01928763
1.1382	0.0195386
1.1384	0.01791451
1.1386	0.01808096
1.1388	0.01682509
1.139	0.01528345
1.1392	0.01596503
1.1394	0.01750055
1.1396	0.01762138
1.1398	0.0166422
1.14	0.01633323
1.1402	0.01622226
1.1404	0.01500798
1.1406	0.01365168
1.1408	0.01267342
1.141	0.01055196
1.1412	0.008705806
1.1414	0.009092537
1.1416	0.008213319
1.1418	0.005266074
1.142	0.004932129
1.1422	0.003924559
1.1424	0.004753338
1.1426	0.002209745
1.1428	-0.0006909263
1.143	-0.002937128
1.1432	-0.004564047
1.1434	-0.004306214
1.1436	-0.003928238
1.1438	-0.005927571
1.144	-0.008851008
1.1442	-0.009100015
1.1444	-0.009493773
1.1446	-0.01019788
1.1448	-0.01077306
1.145	-0.01396576
1.1452	-0.01511669
1.1454	-0.01496125
1.1456	-0.01466886
1.1458	-0.01197191
1.146	-0.01290399
1.1462	-0.01424485
1.1464	-0.01315371
1.1466	-0.01369999
1.1468	-0.01520285
1.147	-0.01656625
1.1472	-0.01772564
1.1474	-0.01696256
1.1476	-0.01745434
1.1478	-0.0182934
1.148	-0.01729883
1.1482	-0.01662804
1.1484	-0.01504187
1.1486	-0.01527832
1.1488	-0.01586986
1.149	-0.01498359
1.1492	-0.01462939
1.1494	-0.01380994
1.1496	-0.01334636
1.1498	-0.01130088
1.15	-0.01080826
1.1502	-0.01110683
1.1504	-0.01030612
1.1506	-0.008460917
1.1508	-0.00781082
1.151	-0.007323183
1.1512	-0.006288695
1.1514	-0.005296119
1.1516	-0.003798939
1.1518	-0.002236165
1.152	-0.002395732
1.1522	-0.002570776
1.1524	-0.0006412424
1.1526	0.0007199959
1.1528	0.0009481618
1.153	0.002731734
1.1532	0.003579732
1.1534	0.003582587
1.1536	0.004509032
1.1538	0.005785336
1.154	0.00715831
1.1542	0.00989278
1.1544	0.009568667
1.1546	0.01010651
1.1548	0.0127306
1.155	0.013916
1.1552	0.01489764
1.1554	0.01454211
1.1556	0.01452683
1.1558	0.01561097
1.156	0.01712904
1.1562	0.01820896
1.1564	0.01919703
1.1566	0.01861579
1.1568	0.01797527
1.157	0.01772221
1.1572	0.01785531
1.1574	0.01894559
1.1576	0.01912927
1.1578	0.01770706
1.158	0.01554824
1.1582	0.01404345
1.1584	0.01499064
1.1586	0.01557599
1.1588	0.01387782
1.159	0.01311213
1.1592	0.0113879
1.1594	0.01062953
1.1596	0.009183466
1.1598	0.007052356
1.16	0.005447054
1.1602	0.003851349
1.1604	0.004881669
1.1606	0.005024214
1.1608	0.004042733
1.161	0.004529187
1.1612	0.00413391
1.1614	0.002220234
1.1616	0.001817259
1.1618	0.001961716
1.162	0.001227995
1.1622	4.443779e-5
1.1624	-0.001068245
1.1626	-0.0004080808
1.1628	-0.001132581
1.163	-0.001156376
1.1632	-0.001453371
1.1634	-0.002485163
1.1636	-0.002869073
1.1638	-0.003510864
1.164	-0.00358376
1.1642	-0.004454423
1.1644	-0.00587476
1.1646	-0.006961145
1.1648	-0.00880998
1.165	-0.008703921
1.1652	-0.009744979
1.1654	-0.01169768
1.1656	-0.01208863
1.1658	-0.01280647
1.166	-0.0138559
1.1662	-0.01453048
1.1664	-0.01505759
1.1666	-0.01602696
1.1668	-0.01726755
1.167	-0.01724913
1.1672	-0.01636167
1.1674	-0.01666457
1.1676	-0.01638139
1.1678	-0.01712031
1.168	-0.01707395
1.1682	-0.01592079
1.1684	-0.01644879
1.1686	-0.01615808
1.1688	-0.01509963
1.169	-0.0143275
1.1692	-0.01420599
1.1694	-0.01449187
1.1696	-0.01432281
1.1698	-0.01315553
1.17	-0.01015908
1.1702	-0.008429434
1.1704	-0.008185614
1.1706	-0.008986942
1.1708	-0.008473582
1.171	-0.008245427
1.1712	-0.007665174
1.1714	-0.006108962
1.1716	-0.004331633
1.1718	-0.00327882
1.172	-0.00259239
1.1722	-0.003875538
1.1724	-0.004282845
1.1726	-0.002391993
1.1728	-0.0006349885
1.173	4.956995e-6
1.1732	0.0002187431
1.1734	0.0009826394
1.1736	0.00331851
1.1738	0.003975186
1.174	0.003603395
1.1742	0.004415706
1.1744	0.004771632
1.1746	0.005718075
1.1748	0.006237182
1.175	0.00609857
1.1752	0.008201131
1.1754	0.01000971
1.1756	0.009500108
1.1758	0.01039867
1.176	0.01086576
1.1762	0.01084791
1.1764	0.01197555
1.1766	0.01205582
1.1768	0.01329562
1.177	0.01579448
1.1772	0.01667834
1.1774	0.01722427
1.1776	0.01620251
1.1778	0.01612303
1.178	0.01581175
1.1782	0.01578386
1.1784	0.01605089
1.1786	0.01453101
1.1788	0.01423909
1.179	0.01547865
1.1792	0.01620925
1.1794	0.01442177
1.1796	0.01225992
1.1798	0.01199037
1.18	0.01211951
1.1802	0.01204464
1.1804	0.01108011
1.1806	0.0106686
1.1808	0.009415084
1.181	0.007509928
1.1812	0.006725252
1.1814	0.007099424
1.1816	0.006657037
1.1818	0.005330722
1.182	0.003926134
1.1822	0.002452399
1.1824	0.002892896
1.1826	0.001785627
1.1828	-0.001080931
1.183	-0.002002063
1.1832	-0.002175229
1.1834	-0.002891555
1.1836	-0.003078215
1.1838	-0.00533623
1.184	-0.007043763
1.1842	-0.008386052
1.1844	-0.009578743
1.1846	-0.01012418
1.1848	-0.01053244
1.185	-0.01153305
1.1852	-0.01112276
1.1854	-0.01215387
1.1856	-0.01296748
1.1858	-0.01347767
1.186	-0.01507595
1.1862	-0.01342267
1.1864	-0.01386748
1.1866	-0.01478667
1.1868	-0.015926
1.187	-0.01664978
1.1872	-0.01649173
1.1874	-0.0166176
1.1876	-0.01837198
1.1878	-0.01962313
1.188	-0.01985686
1.1882	-0.02004847
1.1884	-0.0192588
1.1886	-0.01918149
1.1888	-0.01918562
1.189	-0.01868326
1.1892	-0.01707639
1.1894	-0.01572439
1.1896	-0.01498641
1.1898	-0.01395358
1.19	-0.01182444
1.1902	-0.01180577
1.1904	-0.0104532
1.1906	-0.01057679
1.1908	-0.009447974
1.191	-0.008770114
1.1912	-0.0095319
1.1914	-0.008554347
1.1916	-0.007110451
1.1918	-0.005294383
1.192	-0.004015537
1.1922	-0.00225162
1.1924	-0.001271082
1.1926	-0.001584225
1.1928	-0.0002839885
1.193	0.001510539
1.1932	0.003048005
1.1934	0.004580921
1.1936	0.006859763
1.1938	0.008516385
1.194	0.009445167
1.1942	0.009684872
1.1944	0.01223461
1.1946	0.01250189
1.1948	0.01174553
1.195	0.01176816
1.1952	0.01251264
1.1954	0.01401129
1.1956	0.01588888
1.1958	0.01644172
1.196	0.01666509
1.1962	0.01670111
1.1964	0.01563279
1.1966	0.01710891
1.1968	0.01840348
1.197	0.01986521
1.1972	0.01985393
1.1974	0.01966323
1.1976	0.02013217
1.1978	0.01994483
1.198	0.01952453
1.1982	0.01920753
1.1984	0.01854965
1.1986	0.01917617
1.1988	0.02004666
1.199	0.01868292
1.1992	0.01864595
1.1994	0.0165971
1.1996	0.01563951
1.1998	0.01616732
1.2	0.01326918
1.2002	0.0123
1.2004	0.01326243
1.2006	0.01341427
1.2008	0.01250288
1.201	0.01140477
1.2012	0.01081274
1.2014	0.01057759
1.2016	0.008110175
1.2018	0.007040779
1.202	0.00597614
1.2022	0.004463748
1.2024	0.001742574
1.2026	-0.0008058795
1.2028	-0.002439518
1.203	-0.002345032
1.2032	-0.006040785
1.2034	-0.007881053
1.2036	-0.006748417
1.2038	-0.008355222
1.204	-0.008309047
1.2042	-0.01033739
1.2044	-0.01013622
1.2046	-0.01078729
1.2048	-0.01150805
1.205	-0.0122028
1.2052	-0.01352209
1.2054	-0.01459875
1.2056	-0.01540038
1.2058	-0.01550525
1.206	-0.01637541
1.2062	-0.01636478
1.2064	-0.01469372
1.2066	-0.01595622
1.2068	-0.01752711
1.207	-0.01644067
1.2072	-0.01716999
1.2074	-0.0169599
1.2076	-0.01736409
1.2078	-0.01798652
1.208	-0.01787236
1.2082	-0.01802084
1.2084	-0.01785608
1.2086	-0.01789779
1.2088	-0.01867252
1.209	-0.01941396
1.2092	-0.01805452
1.2094	-0.0175589
1.2096	-0.01808365
1.2098	-0.01813006
1.21	-0.01789176
1.2102	-0.01656874
1.2104	-0.0168697
1.2106	-0.01533909
1.2108	-0.01324941
1.211	-0.01222617
1.2112	-0.01210072
1.2114	-0.01118139
1.2116	-0.009878052
1.2118	-0.007958136
1.212	-0.006547723
1.2122	-0.006413774
1.2124	-0.005856599
1.2126	-0.004131343
1.2128	-0.003003994
1.213	-0.0009691137
1.2132	0.001272025
1.2134	0.001257596
1.2136	0.001749543
1.2138	0.003071053
1.214	0.004504505
1.2142	0.006811651
1.2144	0.007996196
1.2146	0.01064857
1.2148	0.01008543
1.215	0.009468887
1.2152	0.01080957
1.2154	0.01074748
1.2156	0.01445662
1.2158	0.01532904
1.216	0.01596524
1.2162	0.01826114
1.2164	0.01810572
1.2166	0.01783038
1.2168	0.0190046
1.217	0.02043014
1.2172	0.01976921
1.2174	0.0186131
1.2176	0.01907911
1.2178	0.02039514
1.218	0.01978857
1.2182	0.01987389
1.2184	0.01958274
1.2186	0.01860818
1.2188	0.01845492
1.219	0.0184569
1.2192	0.01869488
1.2194	0.01812513
1.2196	0.01655631
1.2198	0.01543007
1.22	0.01522132
1.2202	0.01313893
1.2204	0.01208746
1.2206	0.01141791
1.2208	0.0119464
1.221	0.01170852
1.2212	0.009736788
1.2214	0.009172922
1.2216	0.008102705
1.2218	0.006981827
1.222	0.003949116
1.2222	0.002227079
1.2224	0.002504682
1.2226	0.002633008
1.2228	0.001349561
1.223	-0.0007822808
1.2232	-0.001151085
1.2234	-0.002308517
1.2236	-0.003860079
1.2238	-0.004400888
1.224	-0.004940592
1.2242	-0.007413588
1.2244	-0.008754756
1.2246	-0.00909271
1.2248	-0.008387614
1.225	-0.01112675
1.2252	-0.011964
1.2254	-0.01169739
1.2256	-0.01159737
1.2258	-0.01107368
1.226	-0.01221721
1.2262	-0.01362999
1.2264	-0.01498843
1.2266	-0.01524274
1.2268	-0.01681944
1.227	-0.01524913
1.2272	-0.01483288
1.2274	-0.01622999
1.2276	-0.01643758
1.2278	-0.01726944
1.228	-0.01757701
1.2282	-0.01599588
1.2284	-0.01515809
1.2286	-0.01516089
1.2288	-0.01603774
1.229	-0.01657539
1.2292	-0.0157425
1.2294	-0.01495183
1.2296	-0.01469423
1.2298	-0.0141862
1.23	-0.01211146
1.2302	-0.0106069
1.2304	-0.00969041
1.2306	-0.008796547
1.2308	-0.008116394
1.231	-0.007569592
1.2312	-0.006768769
1.2314	-0.005821792
1.2316	-0.005276026
1.2318	-0.004983051
1.232	-0.003749258
1.2322	-0.002575209
1.2324	-0.002742927
1.2326	-0.001395724
1.2328	0.0005860094
1.233	0.001782179
1.2332	0.003718729
1.2334	0.005220801
1.2336	0.005624798
1.2338	0.006069412
1.234	0.006970233
1.2342	0.008009234
1.2344	0.01005677
1.2346	0.01149264
1.2348	0.01089219
1.235	0.0105342
1.2352	0.01151935
1.2354	0.0128525
1.2356	0.01423892
1.2358	0.01326182
1.236	0.01288149
1.2362	0.01364309
1.2364	0.01475999
1.2366	0.01470874
1.2368	0.01672127
1.237	0.01874906
1.2372	0.0195605
1.2374	0.01889837
1.2376	0.01824152
1.2378	0.01789625
1.238	0.01635213
1.2382	0.01598375
1.2384	0.01532157
1.2386	0.01488941
1.2388	0.01397592
1.239	0.01428042
1.2392	0.01558375
1.2394	0.01422499
1.2396	0.01239544
1.2398	0.01274777
1.24	0.01154433
1.2402	0.01136476
1.2404	0.01196867
1.2406	0.0108839
1.2408	0.01070845
1.241	0.01036051
1.2412	0.00942069
1.2414	0.008894806
1.2416	0.006125343
1.2418	0.005248796
1.242	0.005209526
1.2422	0.004106112
1.2424	0.004303506
1.2426	0.002955085
1.2428	0.001720874
1.243	0.001060117
1.2432	-0.0006283817
1.2434	-0.0008663995
1.2436	-0.001873325
1.2438	-0.002214869
1.244	-0.003566213
1.2442	-0.005877958
1.2444	-0.006327079
1.2446	-0.006302739
1.2448	-0.00616488
1.245	-0.006353609
1.2452	-0.008598093
1.2454	-0.01030528
1.2456	-0.0115286
1.2458	-0.01206855
1.246	-0.01308095
1.2462	-0.01317232
1.2464	-0.01418324
1.2466	-0.01710165
1.2468	-0.01818732
1.247	-0.01880309
1.2472	-0.01892589
1.2474	-0.01877711
1.2476	-0.01922118
1.2478	-0.02115719
1.248	-0.021669
1.2482	-0.02227256
1.2484	-0.02248167
1.2486	-0.02451539
1.2488	-0.02432941
1.249	-0.02458621
1.2492	-0.02488529
1.2494	-0.02425886
1.2496	-0.02312626
1.2498	-0.02254869
1.25	-0.02262418
1.2502	-0.02078205
1.2504	-0.02011419
1.2506	-0.01813659
1.2508	-0.01672954
1.251	-0.01665567
1.2512	-0.0137095
1.2514	-0.01111925
1.2516	-0.01111532
1.2518	-0.008453216
1.252	-0.007447837
1.2522	-0.006618029
1.2524	-0.004902385
1.2526	-0.00271684
1.2528	-0.001399063
1.253	-9.862113e-5
1.2532	0.0003699547
1.2534	0.002593369
1.2536	0.004701542
1.2538	0.006521735
1.254	0.006824235
1.2542	0.009456424
1.2544	0.01171708
1.2546	0.0122027
1.2548	0.01221636
1.255	0.0134567
1.2552	0.01588453
1.2554	0.01577265
1.2556	0.01596828
1.2558	0.01621578
1.256	0.01700334
1.2562	0.01681056
1.2564	0.01819025
1.2566	0.02041049
1.2568	0.02103953
1.257	0.02100247
1.2572	0.02065851
1.2574	0.02076529
1.2576	0.02113569
1.2578	0.02192024
1.258	0.02005359
1.2582	0.02004862
1.2584	0.02043736
1.2586	0.01898797
1.2588	0.01956458
1.259	0.02040617
1.2592	0.01898364
1.2594	0.01665034
1.2596	0.01639462
1.2598	0.0155516
1.26	0.01515796
1.2602	0.01469874
1.2604	0.01487753
1.2606	0.01411406
1.2608	0.0143024
1.261	0.0132152
1.2612	0.01214333
1.2614	0.01178057
1.2616	0.01116533
1.2618	0.0105551
1.262	0.007683509
1.2622	0.005481631
1.2624	0.003981125
1.2626	0.002527224
1.2628	0.0006856216
1.263	-0.0005650488
1.2632	-0.0008741756
1.2634	-0.003405045
1.2636	-0.005060659
1.2638	-0.005498488
1.264	-0.005946161
1.2642	-0.007180929
1.2644	-0.009068876
1.2646	-0.009300751
1.2648	-0.01005828
1.265	-0.01138735
1.2652	-0.01296445
1.2654	-0.01336421
1.2656	-0.01429132
1.2658	-0.01610041
1.266	-0.01672398
1.2662	-0.01645567
1.2664	-0.01680259
1.2666	-0.01705372
1.2668	-0.01813607
1.267	-0.01891205
1.2672	-0.01931521
1.2674	-0.01869411
1.2676	-0.01868843
1.2678	-0.01869758
1.268	-0.01957867
1.2682	-0.0199032
1.2684	-0.01927244
1.2686	-0.0186859
1.2688	-0.01889176
1.269	-0.01738414
1.2692	-0.01781297
1.2694	-0.01600711
1.2696	-0.01402728
1.2698	-0.01454112
1.27	-0.01314526
1.2702	-0.01148577
1.2704	-0.01225579
1.2706	-0.01336053
1.2708	-0.0134488
1.271	-0.0136105
1.2712	-0.01148628
1.2714	-0.008821165
1.2716	-0.008487735
1.2718	-0.006030627
1.272	-0.004319082
1.2722	-0.004171632
1.2724	-0.004453946
1.2726	-0.002553846
1.2728	-0.001229782
1.273	0.0009523307
1.2732	0.001511309
1.2734	0.00157242
1.2736	0.001984941
1.2738	0.003853458
1.274	0.004046251
1.2742	0.003819581
1.2744	0.004670114
1.2746	0.006243357
1.2748	0.007407058
1.275	0.007138773
1.2752	0.007636462
1.2754	0.009145187
1.2756	0.01059309
1.2758	0.01167284
1.276	0.01413044
1.2762	0.01504498
1.2764	0.01390664
1.2766	0.01373049
1.2768	0.01575059
1.277	0.01678767
1.2772	0.01704875
1.2774	0.0174183
1.2776	0.01797348
1.2778	0.01820134
1.278	0.01896175
1.2782	0.01952168
1.2784	0.01841156
1.2786	0.01802185
1.2788	0.01970762
1.279	0.01953131
1.2792	0.01872722
1.2794	0.01772559
1.2796	0.01727961
1.2798	0.01459291
1.28	0.01454415
1.2802	0.01383616
1.2804	0.01128847
1.2806	0.0113382
1.2808	0.01125981
1.281	0.01023581
1.2812	0.00862606
1.2814	0.008117367
1.2816	0.006749458
1.2818	0.005102428
1.282	0.006337858
1.2822	0.006290475
1.2824	0.003850415
1.2826	0.001934369
1.2828	0.001297348
1.283	0.001018003
1.2832	0.0006949758
1.2834	-0.001303322
1.2836	-0.003965478
1.2838	-0.005865715
1.284	-0.006734282
1.2842	-0.006305399
1.2844	-0.005940048
1.2846	-0.007465555
1.2848	-0.008026171
1.285	-0.009474386
1.2852	-0.01119183
1.2854	-0.01278331
1.2856	-0.01331678
1.2858	-0.0121498
1.286	-0.01270319
1.2862	-0.01386837
1.2864	-0.0149458
1.2866	-0.01557552
1.2868	-0.01612202
1.287	-0.01638772
1.2872	-0.015985
1.2874	-0.0159701
1.2876	-0.01715746
1.2878	-0.01681572
1.288	-0.01537646
1.2882	-0.01586087
1.2884	-0.01648178
1.2886	-0.01652322
1.2888	-0.01759428
1.289	-0.01908934
1.2892	-0.01813646
1.2894	-0.0188701
1.2896	-0.01970696
1.2898	-0.01761267
1.29	-0.01569656
1.2902	-0.01559771
1.2904	-0.01522864
1.2906	-0.01391017
1.2908	-0.011805
1.291	-0.01035887
1.2912	-0.009291681
1.2914	-0.007594005
1.2916	-0.008376559
1.2918	-0.007261237
1.292	-0.004611368
1.2922	-0.001889863
1.2924	-0.002453017
1.2926	-0.001511398
