Source File Name:	Scan
Signal:	Time - Ref1 Voltage - Samples

Time	Time Signal
[ s ]	[ V ]
0	-0.010987
0.0002	-0.01077463
0.0004	-0.008599169
0.0006	-0.009726486
0.0008	-0.01054887
0.001	-0.00908868
0.0012	-0.0093772
0.0014	-0.007180385
0.0016	-0.004186496
0.0018	-0.003234195
0.002	-0.002189436
0.0022	0.0008316367
0.0024	0.002259633
0.0026	0.003016382
0.0028	0.005192668
0.003	0.004614407
0.0032	0.005699679
0.0034	0.005749689
0.0036	0.004995062
0.0038	0.004284563
0.004	0.004584261
0.0042	0.004675451
0.0044	0.004930113
0.0046	0.006209797
0.0048	0.006119569
0.005	0.008231092
0.0052	0.009216606
0.0054	0.01213825
0.0056	0.01452045
0.0058	0.01586464
0.006	0.0139597
0.0062	0.01344966
0.0064	0.01551411
0.0066	0.01549407
0.0068	0.01693482
0.007	0.01729707
0.0072	0.01636633
0.0074	0.01659806
0.0076	0.01498925
0.0078	0.01361024
0.008	0.01662179
0.0082	0.01693156
0.0084	0.01752185
0.0086	0.01739257
0.0088	0.01679988
0.009	0.01702723
0.0092	0.01611817
0.0094	0.01757998
0.0096	0.01680613
0.0098	0.01535934
0.01	0.01382482
0.0102	0.0120237
0.0104	0.01208158
0.0106	0.01160352
0.0108	0.009504993
0.011	0.007806652
0.0112	0.009121455
0.0114	0.008089143
0.0116	0.007730918
0.0118	0.007119472
0.012	0.004245954
0.0122	0.00298649
0.0124	0.001493067
0.0126	0.00112234
0.0128	-0.001293464
0.013	-0.002241665
0.0132	-0.006123131
0.0134	-0.0080668
0.0136	-0.007866679
0.0138	-0.009627983
0.014	-0.009892928
0.0142	-0.01036738
0.0144	-0.01255131
0.0146	-0.01463429
0.0148	-0.0146581
0.015	-0.01271971
0.0152	-0.01364946
0.0154	-0.01449572
0.0156	-0.01519382
0.0158	-0.01767812
0.016	-0.01791081
0.0162	-0.01775069
0.0164	-0.0190479
0.0166	-0.01930674
0.0168	-0.01939654
0.017	-0.02135722
0.0172	-0.02217911
0.0174	-0.02033172
0.0176	-0.02150567
0.0178	-0.02131657
0.018	-0.019365
0.0182	-0.01911905
0.0184	-0.01717434
0.0186	-0.01609024
0.0188	-0.01512318
0.019	-0.01566447
0.0192	-0.01406539
0.0194	-0.01325943
0.0196	-0.01288325
0.0198	-0.01178029
0.02	-0.01118468
0.0202	-0.01113048
0.0204	-0.01059249
0.0206	-0.01014817
0.0208	-0.01009507
0.021	-0.007579737
0.0212	-0.005406576
0.0214	-0.005661921
0.0216	-0.003681928
0.0218	-0.002035807
0.022	-0.000594882
0.0222	0.000583449
0.0224	0.003317547
0.0226	0.00113448
0.0228	0.001134624
0.023	0.004472261
0.0232	0.005247709
0.0234	0.006583583
0.0236	0.009004631
0.0238	0.01209555
0.024	0.01180552
0.0242	0.01132895
0.0244	0.009088741
0.0246	0.009846217
0.0248	0.01179511
0.025	0.01239547
0.0252	0.01362677
0.0254	0.01308026
0.0256	0.01503922
0.0258	0.01570098
0.026	0.01568046
0.0262	0.01491301
0.0264	0.01314987
0.0266	0.01483825
0.0268	0.01525847
0.027	0.01599208
0.0272	0.01647045
0.0274	0.01657183
0.0276	0.01679659
0.0278	0.01765464
0.028	0.01803802
0.0282	0.01704739
0.0284	0.01711903
0.0286	0.01504217
0.0288	0.01547477
0.029	0.01460339
0.0292	0.01352634
0.0294	0.0115498
0.0296	0.01036169
0.0298	0.01056886
0.03	0.008819262
0.0302	0.008891667
0.0304	0.007340628
0.0306	0.005516722
0.0308	0.005238895
0.031	0.005154423
0.0312	0.00514997
0.0314	0.00505417
0.0316	0.001900975
0.0318	-0.00135313
0.032	-0.0008842518
0.0322	-0.002292121
0.0324	-0.003467914
0.0326	-0.00427825
0.0328	-0.004819375
0.033	-0.005499598
0.0332	-0.008034597
0.0334	-0.008384323
0.0336	-0.009178338
0.0338	-0.009412679
0.034	-0.009584316
0.0342	-0.009145236
0.0344	-0.008718875
0.0346	-0.01110687
0.0348	-0.01261738
0.035	-0.01372116
0.0352	-0.01366772
0.0354	-0.01633648
0.0356	-0.0187573
0.0358	-0.01969426
0.036	-0.02082188
0.0362	-0.02017361
0.0364	-0.0213585
0.0366	-0.02295905
0.0368	-0.0242279
0.037	-0.02063004
0.0372	-0.02163582
0.0374	-0.02286391
0.0376	-0.0196565
0.0378	-0.02016897
0.038	-0.02094148
0.0382	-0.01984051
0.0384	-0.01796348
0.0386	-0.01887015
0.0388	-0.01751642
0.039	-0.01771656
0.0392	-0.01755664
0.0394	-0.01408909
0.0396	-0.01324851
0.0398	-0.01216336
0.04	-0.01088442
0.0402	-0.01050196
0.0404	-0.009023399
0.0406	-0.00633531
0.0408	-0.004925761
0.041	-0.00665965
0.0412	-0.007457077
0.0414	-0.00699214
0.0416	-0.005909149
0.0418	-0.003007997
0.042	-0.000866265
0.0422	-0.001009125
0.0424	0.00299021
0.0426	0.004045276
0.0428	0.005512371
0.043	0.008398802
0.0432	0.007843504
0.0434	0.009002192
0.0436	0.009688516
0.0438	0.0107971
0.044	0.01143402
0.0442	0.01538579
0.0444	0.01595778
0.0446	0.01305109
0.0448	0.01393104
0.045	0.01537948
0.0452	0.01674525
0.0454	0.01898061
0.0456	0.0189268
0.0458	0.01804012
0.046	0.01798807
0.0462	0.02102316
0.0464	0.02151708
0.0466	0.0227029
0.0468	0.02261535
0.047	0.0188386
0.0472	0.01840343
0.0474	0.01791765
0.0476	0.01864025
0.0478	0.01843854
0.048	0.01941098
0.0482	0.01989984
0.0484	0.01702985
0.0486	0.01610982
0.0488	0.01512387
0.049	0.01523289
0.0492	0.0147209
0.0494	0.01344412
0.0496	0.01316517
0.0498	0.01316561
0.05	0.01327376
0.0502	0.01140047
0.0504	0.01134548
0.0506	0.00831166
0.0508	0.006056949
0.051	0.00511947
0.0512	0.005733289
0.0514	0.007836259
0.0516	0.006075383
0.0518	0.003769268
0.052	0.002184001
0.0522	-0.000797863
0.0524	-0.0009281579
0.0526	-0.001337956
0.0528	-0.004935852
0.053	-0.007577661
0.0532	-0.008322435
0.0534	-0.009906604
0.0536	-0.009870854
0.0538	-0.01030488
0.054	-0.01071363
0.0542	-0.01382652
0.0544	-0.01329128
0.0546	-0.01209572
0.0548	-0.01233625
0.055	-0.01377113
0.0552	-0.01648773
0.0554	-0.01715216
0.0556	-0.01813498
0.0558	-0.01773446
0.056	-0.01819535
0.0562	-0.0178019
0.0564	-0.01824166
0.0566	-0.02062585
0.0568	-0.02024831
0.057	-0.01934071
0.0572	-0.01867533
0.0574	-0.01804052
0.0576	-0.01707445
0.0578	-0.018522
0.058	-0.01704783
0.0582	-0.01601866
0.0584	-0.01644431
0.0586	-0.01637349
0.0588	-0.01490237
0.059	-0.01335134
0.0592	-0.01160275
0.0594	-0.01145848
0.0596	-0.01352052
0.0598	-0.01187208
0.06	-0.01121759
0.0602	-0.01048681
0.0604	-0.01010659
0.0606	-0.01031222
0.0608	-0.01079108
0.061	-0.0104001
0.0612	-0.007528455
0.0614	-0.007508536
0.0616	-0.003673173
0.0618	-0.0001983178
0.062	-0.000510318
0.0622	0.00128009
0.0624	0.003078116
0.0626	0.003440892
0.0628	0.004844954
0.063	0.007164454
0.0632	0.006829714
0.0634	0.008321323
0.0636	0.009478103
0.0638	0.01097972
0.064	0.01214395
0.0642	0.01272877
0.0644	0.01232571
0.0646	0.01328816
0.0648	0.01493614
0.065	0.01437972
0.0652	0.01591091
0.0654	0.01839951
0.0656	0.01838689
0.0658	0.01896512
0.066	0.01985714
0.0662	0.02107099
0.0664	0.02102156
0.0666	0.02080314
0.0668	0.01892612
0.067	0.01824227
0.0672	0.0201655
0.0674	0.01934133
0.0676	0.01940671
0.0678	0.01996112
0.068	0.02051993
0.0682	0.01900789
0.0684	0.01814834
0.0686	0.01670841
0.0688	0.01461239
0.069	0.01556836
0.0692	0.01371867
0.0694	0.01342936
0.0696	0.01281521
0.0698	0.01230839
0.07	0.01060942
0.0702	0.01040341
0.0704	0.00928054
0.0706	0.007045499
0.0708	0.00731104
0.071	0.006071392
0.0712	0.006650891
0.0714	0.00666137
0.0716	0.005917409
0.0718	0.004565433
0.072	0.004276904
0.0722	0.002104958
0.0724	-0.002546147
0.0726	-0.004902053
0.0728	-0.007987661
0.073	-0.009319505
0.0732	-0.009532197
0.0734	-0.01213681
0.0736	-0.01325629
0.0738	-0.01243828
0.074	-0.009849459
0.0742	-0.01090361
0.0744	-0.01163507
0.0746	-0.01241754
0.0748	-0.01310707
0.075	-0.01340051
0.0752	-0.01335329
0.0754	-0.01374924
0.0756	-0.01516249
0.0758	-0.01696486
0.076	-0.01528847
0.0762	-0.01664895
0.0764	-0.01700106
0.0766	-0.01684131
0.0768	-0.01661743
0.077	-0.01763495
0.0772	-0.01852187
0.0774	-0.01883022
0.0776	-0.01842165
0.0778	-0.01847683
0.078	-0.01948444
0.0782	-0.01729278
0.0784	-0.01910037
0.0786	-0.01736507
0.0788	-0.01584494
0.079	-0.01618978
0.0792	-0.0150735
0.0794	-0.01267864
0.0796	-0.01322195
0.0798	-0.01348953
0.08	-0.01152656
0.0802	-0.01254055
0.0804	-0.01263989
0.0806	-0.01145529
0.0808	-0.007427091
0.081	-0.008192577
0.0812	-0.007724441
0.0814	-0.006475304
0.0816	-0.002824436
0.0818	-0.001721726
0.082	-0.002409083
0.0822	-0.001491922
0.0824	8.484881e-5
0.0826	0.0007541197
0.0828	0.001339544
0.083	0.006171919
0.0832	0.006941374
0.0834	0.009501363
0.0836	0.01007759
0.0838	0.008463673
0.084	0.01007953
0.0842	0.01208774
0.0844	0.01308612
0.0846	0.01336061
0.0848	0.01462115
0.085	0.01372011
0.0852	0.01381106
0.0854	0.01674697
0.0856	0.01650957
0.0858	0.01788138
0.086	0.01773179
0.0862	0.01822769
0.0864	0.01954397
0.0866	0.02031199
0.0868	0.023326
0.087	0.02559083
0.0872	0.02404332
0.0874	0.02433768
0.0876	0.02300454
0.0878	0.02027248
0.088	0.01984007
0.0882	0.01910179
0.0884	0.01786386
0.0886	0.01718578
0.0888	0.01814267
0.089	0.01948342
0.0892	0.01720419
0.0894	0.01586561
0.0896	0.01469956
0.0898	0.01214705
0.09	0.009649443
0.0902	0.008288821
0.0904	0.006189018
0.0906	0.004340497
0.0908	0.005322684
0.091	0.006682116
0.0912	0.004578392
0.0914	0.002690287
0.0916	0.003643347
0.0918	0.00133902
0.092	0.0001002791
0.0922	-0.002281815
0.0924	-0.007373973
0.0926	-0.009911338
0.0928	-0.009162863
0.093	-0.006155658
0.0932	-0.00833625
0.0934	-0.008954691
0.0936	-0.01017228
0.0938	-0.01273147
0.094	-0.0138263
0.0942	-0.01451503
0.0944	-0.01272181
0.0946	-0.01154908
0.0948	-0.01153536
0.095	-0.01225388
0.0952	-0.01463522
0.0954	-0.01736868
0.0956	-0.0174119
0.0958	-0.01978653
0.096	-0.02061172
0.0962	-0.02101792
0.0964	-0.02079402
0.0966	-0.01978664
0.0968	-0.02077867
0.097	-0.02109336
0.0972	-0.02331818
0.0974	-0.0250637
0.0976	-0.02303411
0.0978	-0.02277873
0.098	-0.02146215
0.0982	-0.01948685
0.0984	-0.0184558
0.0986	-0.01702066
0.0988	-0.01642265
0.099	-0.01383231
0.0992	-0.01428751
0.0994	-0.014402
0.0996	-0.0125866
0.0998	-0.01373288
0.1	-0.01263074
0.1002	-0.01173026
0.1004	-0.01085608
0.1006	-0.009620899
0.1008	-0.008619157
0.101	-0.008092551
0.1012	-0.007953893
0.1014	-0.004678471
0.1016	-0.001538548
0.1018	0.000148782
0.102	0.001304677
0.1022	0.001638858
0.1024	0.001768345
0.1026	0.002075274
0.1028	0.004210501
0.103	0.005587626
0.1032	0.00654166
0.1034	0.00919508
0.1036	0.0100566
0.1038	0.01123957
0.104	0.01245181
0.1042	0.0114985
0.1044	0.01040298
0.1046	0.01000168
0.1048	0.01324808
0.105	0.01314035
0.1052	0.01410804
0.1054	0.01675795
0.1056	0.01707838
0.1058	0.01645479
0.106	0.01478388
0.1062	0.01690147
0.1064	0.02111922
0.1066	0.02474402
0.1068	0.02512896
0.107	0.02294272
0.1072	0.02383419
0.1074	0.02181984
0.1076	0.02068985
0.1078	0.0209055
0.108	0.02222891
0.1082	0.02363672
0.1084	0.02192575
0.1086	0.02125284
0.1088	0.01902105
0.109	0.01852488
0.1092	0.01990068
0.1094	0.01916903
0.1096	0.01895497
0.1098	0.01673968
0.11	0.01382165
0.1102	0.0128074
0.1104	0.01165855
0.1106	0.01157327
0.1108	0.008553226
0.111	0.008350978
0.1112	0.008957122
0.1114	0.007659222
0.1116	0.005935733
0.1118	0.004146547
0.112	0.00158105
0.1122	-0.0005347338
0.1124	-0.0005866099
0.1126	-0.0001136959
0.1128	-0.003638913
0.113	-0.007215645
0.1132	-0.007125905
0.1134	-0.007751889
0.1136	-0.009222166
0.1138	-0.01061819
0.114	-0.0108597
0.1142	-0.01123179
0.1144	-0.0114583
0.1146	-0.01069501
0.1148	-0.01301177
0.115	-0.01355652
0.1152	-0.01623675
0.1154	-0.01987594
0.1156	-0.01996592
0.1158	-0.02068722
0.116	-0.02040914
0.1162	-0.02224513
0.1164	-0.02086649
0.1166	-0.022323
0.1168	-0.02206798
0.117	-0.01925831
0.1172	-0.02168533
0.1174	-0.02143821
0.1176	-0.02054309
0.1178	-0.01976514
0.118	-0.0193473
0.1182	-0.01754476
0.1184	-0.01607519
0.1186	-0.01856067
0.1188	-0.01505445
0.119	-0.0153583
0.1192	-0.016511
0.1194	-0.01542572
0.1196	-0.01537462
0.1198	-0.01452209
0.12	-0.01383558
0.1202	-0.01270567
0.1204	-0.01245972
0.1206	-0.0103237
0.1208	-0.009511637
0.121	-0.01073876
0.1212	-0.009886699
0.1214	-0.009254741
0.1216	-0.008446609
0.1218	-0.006702961
0.122	-0.003896274
0.1222	-0.0008553289
0.1224	-0.00162058
0.1226	0.0001582045
0.1228	0.002692522
0.123	0.002807544
0.1232	0.004857084
0.1234	0.005927415
0.1236	0.007543646
0.1238	0.008006074
0.124	0.009064374
0.1242	0.009415215
0.1244	0.008389816
0.1246	0.01136864
0.1248	0.01242522
0.125	0.01493275
0.1252	0.01578618
0.1254	0.01701303
0.1256	0.01854707
0.1258	0.02077013
0.126	0.02310321
0.1262	0.01990904
0.1264	0.01995268
0.1266	0.01934451
0.1268	0.01958535
0.127	0.01966877
0.1272	0.01933371
0.1274	0.02014802
0.1276	0.02296065
0.1278	0.02510162
0.128	0.02320879
0.1282	0.02349085
0.1284	0.02149182
0.1286	0.02005481
0.1288	0.01900751
0.129	0.01863136
0.1292	0.01937212
0.1294	0.0182212
0.1296	0.0168463
0.1298	0.01469069
0.13	0.0155413
0.1302	0.01406099
0.1304	0.01082455
0.1306	0.008925071
0.1308	0.007046424
0.131	0.006473767
0.1312	0.0073677
0.1314	0.003943817
0.1316	0.0005303106
0.1318	0.00115034
0.132	-0.002258111
0.1322	-0.005206387
0.1324	-0.005619453
0.1326	-0.005722645
0.1328	-0.004679524
0.133	-0.006237445
0.1332	-0.007175902
0.1334	-0.009674712
0.1336	-0.01173598
0.1338	-0.01208323
0.134	-0.01303961
0.1342	-0.01269233
0.1344	-0.01196478
0.1346	-0.01065315
0.1348	-0.01044849
0.135	-0.009918727
0.1352	-0.01086295
0.1354	-0.01230376
0.1356	-0.01392933
0.1358	-0.01639264
0.136	-0.01730743
0.1362	-0.01923186
0.1364	-0.02113989
0.1366	-0.02190793
0.1368	-0.02139636
0.137	-0.0232683
0.1372	-0.02375764
0.1374	-0.02355438
0.1376	-0.02269652
0.1378	-0.02255212
0.138	-0.0205879
0.1382	-0.01766091
0.1384	-0.01682656
0.1386	-0.01615207
0.1388	-0.01398704
0.139	-0.01513843
0.1392	-0.01417813
0.1394	-0.01448283
0.1396	-0.01629862
0.1398	-0.01529372
0.14	-0.0156338
0.1402	-0.01318164
0.1404	-0.01211652
0.1406	-0.009559668
0.1408	-0.009681938
0.141	-0.009701326
0.1412	-0.007435881
0.1414	-0.007335387
0.1416	-0.005371535
0.1418	-0.004392613
0.142	-0.003235535
0.1422	-0.003067062
0.1424	3.446849e-5
0.1426	0.003172857
0.1428	0.0030431
0.143	0.004742349
0.1432	0.007379982
0.1434	0.009736998
0.1436	0.01122551
0.1438	0.01212015
0.144	0.01212364
0.1442	0.01049861
0.1444	0.01035039
0.1446	0.01198303
0.1448	0.01131538
0.145	0.01274923
0.1452	0.01468332
0.1454	0.01620095
0.1456	0.01826476
0.1458	0.01853436
0.146	0.0186995
0.1462	0.0183245
0.1464	0.02024795
0.1466	0.01918559
0.1468	0.01935394
0.147	0.0201463
0.1472	0.01951445
0.1474	0.0207331
0.1476	0.02103542
0.1478	0.0204345
0.148	0.01959435
0.1482	0.01968415
0.1484	0.01727412
0.1486	0.01443954
0.1488	0.01566824
0.149	0.01492563
0.1492	0.01208628
0.1494	0.01112694
0.1496	0.01166872
0.1498	0.01097417
0.15	0.01165037
0.1502	0.01373532
0.1504	0.01178839
0.1506	0.01100112
0.1508	0.009356307
0.151	0.009537815
0.1512	0.01038179
0.1514	0.00983993
0.1516	0.008040047
0.1518	0.005621736
0.152	0.003544447
0.1522	0.0005063209
0.1524	-0.003058909
0.1526	-0.004019186
0.1528	-0.004972029
0.153	-0.006482722
0.1532	-0.008019272
0.1534	-0.009224048
0.1536	-0.01052207
0.1538	-0.01171113
0.154	-0.01092615
0.1542	-0.01115288
0.1544	-0.01075461
0.1546	-0.008720813
0.1548	-0.01038154
0.155	-0.01394339
0.1552	-0.01540277
0.1554	-0.01522062
0.1556	-0.01599312
0.1558	-0.01559204
0.156	-0.01533801
0.1562	-0.01720826
0.1564	-0.01878766
0.1566	-0.02066392
0.1568	-0.01926402
0.157	-0.01865172
0.1572	-0.01745716
0.1574	-0.01886677
0.1576	-0.01767379
0.1578	-0.0176229
0.158	-0.01924168
0.1582	-0.017494
0.1584	-0.01737957
0.1586	-0.01738663
0.1588	-0.01840449
0.159	-0.01764627
0.1592	-0.01649599
0.1594	-0.01618603
0.1596	-0.01387454
0.1598	-0.01489905
0.16	-0.0108008
0.1602	-0.00880645
0.1604	-0.009109274
0.1606	-0.007066093
0.1608	-0.00807663
0.161	-0.008502035
0.1612	-0.008710968
0.1614	-0.006468416
0.1616	-0.003944593
0.1618	-0.004905877
0.162	-0.003379556
0.1622	-0.002974939
0.1624	-0.00286457
0.1626	-0.0007662203
0.1628	0.001066319
0.163	0.004003576
0.1632	0.006176107
0.1634	0.008704707
0.1636	0.009800888
0.1638	0.007666649
0.164	0.009931208
0.1642	0.01254959
0.1644	0.0126657
0.1646	0.01329526
0.1648	0.01402888
0.165	0.01593401
0.1652	0.01731384
0.1654	0.01816789
0.1656	0.01649021
0.1658	0.01717986
0.166	0.01848205
0.1662	0.01821039
0.1664	0.01832581
0.1666	0.01889174
0.1668	0.02091218
0.167	0.01950412
0.1672	0.01960006
0.1674	0.01887249
0.1676	0.01746366
0.1678	0.0195065
0.168	0.01852069
0.1682	0.01680703
0.1684	0.01377082
0.1686	0.01393861
0.1688	0.01476972
0.169	0.01609507
0.1692	0.0147938
0.1694	0.01367063
0.1696	0.0132006
0.1698	0.01185016
0.17	0.009992006
0.1702	0.008012719
0.1704	0.007190199
0.1706	0.006400027
0.1708	0.007477093
0.171	0.006652842
0.1712	0.00815266
0.1714	0.007118319
0.1716	0.005505554
0.1718	0.003104295
0.172	0.002120918
0.1722	0.002511367
0.1724	0.0003531278
0.1726	-0.001044165
0.1728	-0.001466218
0.173	-0.003438191
0.1732	-0.004546574
0.1734	-0.005855435
0.1736	-0.007745535
0.1738	-0.009146217
0.174	-0.01006527
0.1742	-0.01052381
0.1744	-0.01067646
0.1746	-0.008436508
0.1748	-0.00748334
0.175	-0.01036018
0.1752	-0.01508327
0.1754	-0.01595284
0.1756	-0.01559744
0.1758	-0.01708584
0.176	-0.01624097
0.1762	-0.01716083
0.1764	-0.01795944
0.1766	-0.01822279
0.1768	-0.01668343
0.177	-0.01821796
0.1772	-0.0186332
0.1774	-0.01741287
0.1776	-0.01847786
0.1778	-0.01923514
0.178	-0.01725889
0.1782	-0.0159051
0.1784	-0.01505709
0.1786	-0.0121457
0.1788	-0.01173467
0.179	-0.01381643
0.1792	-0.01364683
0.1794	-0.01329734
0.1796	-0.0148684
0.1798	-0.01585539
0.18	-0.01475602
0.1802	-0.01330291
0.1804	-0.01132371
0.1806	-0.009732191
0.1808	-0.006743242
0.181	-0.008163214
0.1812	-0.00981775
0.1814	-0.006729923
0.1816	-0.00633673
0.1818	-0.003893857
0.182	-0.001749001
0.1822	-0.0005594654
0.1824	0.001684266
0.1826	0.001497574
0.1828	0.003454643
0.183	0.003626922
0.1832	0.00444214
0.1834	0.006815596
0.1836	0.007521247
0.1838	0.008164233
0.184	0.009273219
0.1842	0.01249541
0.1844	0.01362467
0.1846	0.01278955
0.1848	0.01380124
0.185	0.01398949
0.1852	0.01568513
0.1854	0.01758822
0.1856	0.01756992
0.1858	0.0173799
0.186	0.01760906
0.1862	0.01890739
0.1864	0.02126266
0.1866	0.02328424
0.1868	0.02112773
0.187	0.01743039
0.1872	0.01800127
0.1874	0.01943408
0.1876	0.01846408
0.1878	0.01906877
0.188	0.01887137
0.1882	0.01840732
0.1884	0.01879798
0.1886	0.02020708
0.1888	0.0173971
0.189	0.01535972
0.1892	0.01600341
0.1894	0.01571516
0.1896	0.01423223
0.1898	0.01177826
0.19	0.01082392
0.1902	0.01085508
0.1904	0.00962766
0.1906	0.01023074
0.1908	0.01065218
0.191	0.007522609
0.1912	0.007964596
0.1914	0.006303249
0.1916	0.002407544
0.1918	0.0002320359
0.192	3.81939e-5
0.1922	-0.001285634
0.1924	-0.001397579
0.1926	-0.001667272
0.1928	-0.004746478
0.193	-0.004847429
0.1932	-0.007736921
0.1934	-0.01038933
0.1936	-0.01005955
0.1938	-0.0104229
0.194	-0.009653302
0.1942	-0.01078527
0.1944	-0.01226236
0.1946	-0.01511032
0.1948	-0.0150554
0.195	-0.01664566
0.1952	-0.01723961
0.1954	-0.01653508
0.1956	-0.0175794
0.1958	-0.01747248
0.196	-0.01508485
0.1962	-0.01519097
0.1964	-0.01722256
0.1966	-0.01630195
0.1968	-0.01799734
0.197	-0.01878352
0.1972	-0.02005849
0.1974	-0.01981952
0.1976	-0.01971669
0.1978	-0.01826424
0.198	-0.0175769
0.1982	-0.01816376
0.1984	-0.01554695
0.1986	-0.01333458
0.1988	-0.01503783
0.199	-0.01507989
0.1992	-0.01474161
0.1994	-0.01532521
0.1996	-0.01642073
0.1998	-0.01445767
0.2	-0.01223454
0.2002	-0.01280013
0.2004	-0.009792719
0.2006	-0.009012496
0.2008	-0.009801704
0.201	-0.01056664
0.2012	-0.008567647
0.2014	-0.007245311
0.2016	-0.007072869
0.2018	-0.004457314
0.202	-0.006356318
0.2022	-0.004311252
0.2024	-0.0007985611
0.2026	-0.0001741904
0.2028	0.001381425
0.203	0.003764616
0.2032	0.005521842
0.2034	0.00628952
0.2036	0.008006304
0.2038	0.0093518
0.204	0.009247178
0.2042	0.01075533
0.2044	0.01240006
0.2046	0.01161261
0.2048	0.01275866
0.205	0.01456183
0.2052	0.01566384
0.2054	0.01458715
0.2056	0.01529729
0.2058	0.0139737
0.206	0.01460184
0.2062	0.01469753
0.2064	0.01479577
0.2066	0.01809114
0.2068	0.01962995
0.207	0.01934342
0.2072	0.01917999
0.2074	0.02218876
0.2076	0.0194672
0.2078	0.01832099
0.208	0.01939069
0.2082	0.01715863
0.2084	0.01726575
0.2086	0.01800066
0.2088	0.01666647
0.209	0.01541434
0.2092	0.01631875
0.2094	0.01595953
0.2096	0.01402862
0.2098	0.01531935
0.21	0.01564891
0.2102	0.01351219
0.2104	0.01225115
0.2106	0.01101743
0.2108	0.01091778
0.211	0.009629296
0.2112	0.01043484
0.2114	0.008089356
0.2116	0.006250064
0.2118	0.00551186
0.212	0.003012969
0.2122	0.0015995
0.2124	0.001463851
0.2126	0.0001492076
0.2128	0.000176131
0.213	-0.0005727984
0.2132	-0.002009397
0.2134	-0.005697951
0.2136	-0.006493276
0.2138	-0.007628224
0.214	-0.008557384
0.2142	-0.009342398
0.2144	-0.01044629
0.2146	-0.01143198
0.2148	-0.01100603
0.215	-0.01206439
0.2152	-0.01330046
0.2154	-0.01330398
0.2156	-0.01604238
0.2158	-0.01681169
0.216	-0.01723933
0.2162	-0.0185547
0.2164	-0.02140068
0.2166	-0.02335749
0.2168	-0.02363902
0.217	-0.02338237
0.2172	-0.02033348
0.2174	-0.02280473
0.2176	-0.02482543
0.2178	-0.02544969
0.218	-0.02522143
0.2182	-0.02297055
0.2184	-0.02334992
0.2186	-0.02222276
0.2188	-0.02162669
0.219	-0.0198795
0.2192	-0.01665252
0.2194	-0.01914246
0.2196	-0.01801568
0.2198	-0.016608
0.22	-0.01446647
0.2202	-0.01228149
0.2204	-0.01051428
0.2206	-0.01190562
0.2208	-0.009679648
0.221	-0.00803239
0.2212	-0.008115698
0.2214	-0.006836598
0.2216	-0.005322
0.2218	-0.002695212
0.222	-0.002193796
0.2222	0.0004256304
0.2224	0.0005408768
0.2226	0.0009251191
0.2228	0.001312002
0.223	0.001675181
0.2232	0.004861656
0.2234	0.006483565
0.2236	0.009843301
0.2238	0.01114606
0.224	0.01048532
0.2242	0.01237301
0.2244	0.01231268
0.2246	0.01502594
0.2248	0.01673421
0.225	0.01530261
0.2252	0.01448934
0.2254	0.01503815
0.2256	0.01631477
0.2258	0.01786313
0.226	0.02033608
0.2262	0.02102677
0.2264	0.02341395
0.2266	0.023608
0.2268	0.02364993
0.227	0.02390921
0.2272	0.0245147
0.2274	0.02494543
0.2276	0.02517165
0.2278	0.02454508
0.228	0.02261143
0.2282	0.02161997
0.2284	0.01937358
0.2286	0.01819285
0.2288	0.01832577
0.229	0.01835168
0.2292	0.0167458
0.2294	0.01646113
0.2296	0.01734247
0.2298	0.01354073
0.23	0.01398494
0.2302	0.01462177
0.2304	0.01270876
0.2306	0.0119745
0.2308	0.009577258
0.231	0.008739521
0.2312	0.00711922
0.2314	0.008219603
0.2316	0.00536743
0.2318	0.002277162
0.232	0.004818616
0.2322	0.002895171
0.2324	0.0007284438
0.2326	-0.0005308021
0.2328	-0.002287605
0.233	-0.002813708
0.2332	-0.003989086
0.2334	-0.005870006
0.2336	-0.009093376
0.2338	-0.009688497
0.234	-0.009986315
0.2342	-0.01210952
0.2344	-0.01193673
0.2346	-0.01211474
0.2348	-0.01361543
0.235	-0.01605128
0.2352	-0.01413979
0.2354	-0.01499274
0.2356	-0.0172471
0.2358	-0.01837762
0.236	-0.02003874
0.2362	-0.01938308
0.2364	-0.01961766
0.2366	-0.0206894
0.2368	-0.02180519
0.237	-0.02083433
0.2372	-0.02118604
0.2374	-0.02078183
0.2376	-0.01849893
0.2378	-0.01931142
0.238	-0.01988414
0.2382	-0.01907554
0.2384	-0.017002
0.2386	-0.01626935
0.2388	-0.01526079
0.239	-0.0133109
0.2392	-0.01502452
0.2394	-0.01579922
0.2396	-0.01458711
0.2398	-0.01173141
0.24	-0.01140135
0.2402	-0.01225931
0.2404	-0.01132848
0.2406	-0.008655752
0.2408	-0.006241989
0.241	-0.0082217
0.2412	-0.007320055
0.2414	-0.005521073
0.2416	-0.003984652
0.2418	-0.002254008
0.242	-0.001165454
0.2422	0.0003435869
0.2424	0.001671352
0.2426	0.003626354
0.2428	0.005256086
0.243	0.005313473
0.2432	0.007977349
0.2434	0.01090225
0.2436	0.01042017
0.2438	0.01157323
0.244	0.01213395
0.2442	0.01317945
0.2444	0.01335794
0.2446	0.01258975
0.2448	0.01091507
0.245	0.01283703
0.2452	0.01564722
0.2454	0.01479488
0.2456	0.01535229
0.2458	0.01563378
0.246	0.01614579
0.2462	0.01610911
0.2464	0.01843894
0.2466	0.02122891
0.2468	0.01922192
0.247	0.01839346
0.2472	0.01844028
0.2474	0.01684848
0.2476	0.01862261
0.2478	0.01917646
0.248	0.01728492
0.2482	0.01513614
0.2484	0.01635344
0.2486	0.01558938
0.2488	0.01462362
0.249	0.01484736
0.2492	0.01291739
0.2494	0.01158385
0.2496	0.01182306
0.2498	0.01211691
0.25	0.01175092
0.2502	0.01184291
0.2504	0.009441343
0.2506	0.0083139
0.2508	0.007862221
0.251	0.007301918
0.2512	0.005942316
0.2514	0.004211438
0.2516	0.005411935
0.2518	0.005379582
0.252	0.006063952
0.2522	0.005894395
0.2524	0.002556841
0.2526	0.001861377
0.2528	-0.0002198516
0.253	-0.002387036
0.2532	-0.003106671
0.2534	-0.005180944
0.2536	-0.006665397
0.2538	-0.008269534
0.254	-0.008818969
0.2542	-0.01037392
0.2544	-0.01170502
0.2546	-0.01038715
0.2548	-0.01228173
0.255	-0.01408172
0.2552	-0.01416111
0.2554	-0.01527745
0.2556	-0.01597034
0.2558	-0.01473654
0.256	-0.01414184
0.2562	-0.01703332
0.2564	-0.01831257
0.2566	-0.01810927
0.2568	-0.01922896
0.257	-0.02187373
0.2572	-0.02367395
0.2574	-0.02287095
0.2576	-0.0221366
0.2578	-0.01997492
0.258	-0.01770161
0.2582	-0.01790071
0.2584	-0.01758475
0.2586	-0.01736437
0.2588	-0.01838114
0.259	-0.01679556
0.2592	-0.01533152
0.2594	-0.0147729
0.2596	-0.01610555
0.2598	-0.01618364
0.26	-0.01291595
0.2602	-0.01407017
0.2604	-0.01191607
0.2606	-0.00994387
0.2608	-0.01178032
0.261	-0.01316436
0.2612	-0.01309124
0.2614	-0.01318356
0.2616	-0.01245942
0.2618	-0.006520248
0.262	-0.002743529
0.2622	-0.000701929
0.2624	0.001928424
0.2626	3.116571e-5
0.2628	0.0002382325
0.263	0.002512423
0.2632	0.003911173
0.2634	0.004305825
0.2636	0.005082855
0.2638	0.005719705
0.264	0.005338457
0.2642	0.006301129
0.2644	0.006717586
0.2646	0.007548452
0.2648	0.009003177
0.265	0.01022742
0.2652	0.01253376
0.2654	0.01310682
0.2656	0.01513055
0.2658	0.01607494
0.266	0.01420217
0.2662	0.01541951
0.2664	0.01690266
0.2666	0.01681459
0.2668	0.01719726
0.267	0.018187
0.2672	0.01897131
0.2674	0.01888733
0.2676	0.01904319
0.2678	0.01961144
0.268	0.01943028
0.2682	0.017984
0.2684	0.01557407
0.2686	0.01478226
0.2688	0.01393082
0.269	0.0151746
0.2692	0.01552039
0.2694	0.01544587
0.2696	0.01516837
0.2698	0.01293553
0.27	0.01258513
0.2702	0.01151959
0.2704	0.01230755
0.2706	0.01244157
0.2708	0.01114681
0.271	0.009148294
0.2712	0.007844212
0.2714	0.007153138
0.2716	0.004381054
0.2718	0.00187476
0.272	-1.789212e-5
0.2722	-0.002174407
0.2724	-0.002983685
0.2726	-0.003226068
0.2728	-0.004609668
0.273	-0.005028114
0.2732	-0.005631139
0.2734	-0.007227532
0.2736	-0.008879387
0.2738	-0.009368469
0.274	-0.01165194
0.2742	-0.01289899
0.2744	-0.01265601
0.2746	-0.01268355
0.2748	-0.01220419
0.275	-0.01318691
0.2752	-0.01376869
0.2754	-0.01680017
0.2756	-0.01846455
0.2758	-0.01976623
0.276	-0.02242715
0.2762	-0.02283831
0.2764	-0.02178173
0.2766	-0.01992235
0.2768	-0.01970979
0.277	-0.01829663
0.2772	-0.0194547
0.2774	-0.01898561
0.2776	-0.01779109
0.2778	-0.01965619
0.278	-0.02003541
0.2782	-0.01902334
0.2784	-0.01667979
0.2786	-0.01615868
0.2788	-0.01592421
0.279	-0.01518454
0.2792	-0.01641327
0.2794	-0.01383161
0.2796	-0.01398878
0.2798	-0.01267971
0.28	-0.01172448
0.2802	-0.0124796
0.2804	-0.0107655
0.2806	-0.008519944
0.2808	-0.006577826
0.281	-0.007456318
0.2812	-0.0059421
0.2814	-0.004385067
0.2816	-0.002588254
0.2818	-0.001072765
0.282	-0.0006152389
0.2822	0.002231407
0.2824	0.004142998
0.2826	0.006859156
0.2828	0.007110102
0.283	0.007501831
0.2832	0.00809493
0.2834	0.006149544
0.2836	0.006690865
0.2838	0.00775151
0.284	0.009900242
0.2842	0.009895692
0.2844	0.01009796
0.2846	0.0116774
0.2848	0.01050463
0.285	0.01467913
0.2852	0.01716388
0.2854	0.01573675
0.2856	0.01681039
0.2858	0.01780681
0.286	0.01880829
0.2862	0.01933912
0.2864	0.02117021
0.2866	0.020122
0.2868	0.01908899
0.287	0.01916722
0.2872	0.01808792
0.2874	0.01698868
0.2876	0.01630134
0.2878	0.01765337
0.288	0.01890988
0.2882	0.01972498
0.2884	0.01924351
0.2886	0.01678261
0.2888	0.01493687
0.289	0.01721419
0.2892	0.01868366
0.2894	0.01625721
0.2896	0.0159444
0.2898	0.01561899
0.29	0.01455687
0.2902	0.01241011
0.2904	0.009967503
0.2906	0.009903026
0.2908	0.006423988
0.291	0.004184883
0.2912	0.006473233
0.2914	0.005306068
0.2916	0.003389028
0.2918	0.002232477
0.292	0.001207231
0.2922	-0.0003944505
0.2924	-0.001845557
0.2926	-0.002055857
0.2928	-0.003641852
0.293	-0.005902088
0.2932	-0.005852622
0.2934	-0.005856547
0.2936	-0.007009452
0.2938	-0.007984199
0.294	-0.009803817
0.2942	-0.007836349
0.2944	-0.008996909
0.2946	-0.009065981
0.2948	-0.01091354
0.295	-0.01346792
0.2952	-0.01379032
0.2954	-0.01533128
0.2956	-0.0168531
0.2958	-0.01792038
0.296	-0.01746177
0.2962	-0.01699927
0.2964	-0.01682548
0.2966	-0.01585291
0.2968	-0.01797323
0.297	-0.02009209
0.2972	-0.01846006
0.2974	-0.01962303
0.2976	-0.02043802
0.2978	-0.02145277
0.298	-0.02034925
0.2982	-0.01930257
0.2984	-0.01835068
0.2986	-0.01723584
0.2988	-0.01717387
0.299	-0.01538773
0.2992	-0.01473026
0.2994	-0.01492633
0.2996	-0.01513459
0.2998	-0.01470811
0.3	-0.013535
0.3002	-0.01107404
0.3004	-0.007722178
0.3006	-0.006738274
0.3008	-0.005784663
0.301	-0.006091048
0.3012	-0.007278341
0.3014	-0.005608911
0.3016	-0.004566667
0.3018	-0.002424428
0.302	2.167925e-5
0.3022	0.001282093
0.3024	0.001853469
0.3026	0.001815171
0.3028	0.004283845
0.303	0.006376659
0.3032	0.006454187
0.3034	0.007509065
0.3036	0.008029494
0.3038	0.01013261
0.304	0.01121968
0.3042	0.01170788
0.3044	0.01309584
0.3046	0.01199391
0.3048	0.01278708
0.305	0.01510642
0.3052	0.01546647
0.3054	0.01732549
0.3056	0.01950866
0.3058	0.0186149
0.306	0.01924467
0.3062	0.01972962
0.3064	0.02046667
0.3066	0.01905474
0.3068	0.01660204
0.307	0.01847584
0.3072	0.01853012
0.3074	0.01700634
0.3076	0.01809033
0.3078	0.01698723
0.308	0.01734436
0.3082	0.01699353
0.3084	0.01776985
0.3086	0.01950705
0.3088	0.01797719
0.309	0.01821799
0.3092	0.01571676
0.3094	0.01426392
0.3096	0.01492069
0.3098	0.01416685
0.31	0.0126478
0.3102	0.01223421
0.3104	0.01099983
0.3106	0.009069695
0.3108	0.009768602
0.311	0.0074575
0.3112	0.005642029
0.3114	0.003834317
0.3116	0.002933387
0.3118	0.002932719
0.312	0.0008176997
0.3122	-0.0005402623
0.3124	-0.002692679
0.3126	-0.002339992
0.3128	-0.003001553
0.313	-0.003769607
0.3132	-0.00426816
0.3134	-0.007296458
0.3136	-0.009184842
0.3138	-0.01047442
0.314	-0.01073329
0.3142	-0.01222898
0.3144	-0.01285313
0.3146	-0.01306601
0.3148	-0.01282647
0.315	-0.01565547
0.3152	-0.01775812
0.3154	-0.01616606
0.3156	-0.017431
0.3158	-0.01770948
0.316	-0.02031971
0.3162	-0.02208431
0.3164	-0.02265492
0.3166	-0.02213087
0.3168	-0.02204161
0.317	-0.02116209
0.3172	-0.01935524
0.3174	-0.0174377
0.3176	-0.01601923
0.3178	-0.01611642
0.318	-0.0169176
0.3182	-0.01333242
0.3184	-0.01220336
0.3186	-0.01448165
0.3188	-0.0141615
0.319	-0.01545029
0.3192	-0.01533916
0.3194	-0.01344207
0.3196	-0.01210359
0.3198	-0.00820922
0.32	-0.008964723
0.3202	-0.01249061
0.3204	-0.01045405
0.3206	-0.008204511
0.3208	-0.006396906
0.321	-0.003279965
0.3212	-0.003332075
0.3214	-0.003200721
0.3216	-0.002897223
0.3218	6.575197e-5
0.322	0.001365568
0.3222	-0.0004505329
0.3224	0.001068575
0.3226	0.00314961
0.3228	0.003472796
0.323	0.004788375
0.3232	0.0062617
0.3234	0.007399914
0.3236	0.006666826
0.3238	0.007481645
0.324	0.007917422
0.3242	0.008603893
0.3244	0.009998413
0.3246	0.009382725
0.3248	0.01030697
0.325	0.01246913
0.3252	0.01335851
0.3254	0.01386459
0.3256	0.0134412
0.3258	0.01426604
0.326	0.01624411
0.3262	0.01512208
0.3264	0.01538759
0.3266	0.01652136
0.3268	0.01646627
0.327	0.01735261
0.3272	0.0176243
0.3274	0.01814101
0.3276	0.0199362
0.3278	0.02103884
0.328	0.02189961
0.3282	0.01816677
0.3284	0.01641561
0.3286	0.01745234
0.3288	0.01748682
0.329	0.01469735
0.3292	0.01422202
0.3294	0.01386704
0.3296	0.01266375
0.3298	0.0109676
0.33	0.009280998
0.3302	0.01043747
0.3304	0.008640479
0.3306	0.007453221
0.3308	0.006710303
0.331	0.003643482
0.3312	0.001276102
0.3314	-0.001222506
0.3316	-0.002482684
0.3318	-0.002696158
0.332	-0.002086827
0.3322	-0.001946372
0.3324	-0.003435822
0.3326	-0.004904352
0.3328	-0.004188756
0.333	-0.004780511
0.3332	-0.007224186
0.3334	-0.009827294
0.3336	-0.01108574
0.3338	-0.01223031
0.334	-0.01295948
0.3342	-0.0109925
0.3344	-0.01133314
0.3346	-0.01366999
0.3348	-0.01346062
0.335	-0.0120508
0.3352	-0.01256736
0.3354	-0.01266155
0.3356	-0.0138524
0.3358	-0.01499756
0.336	-0.01595457
0.3362	-0.01843759
0.3364	-0.01899492
0.3366	-0.02114923
0.3368	-0.02151163
0.337	-0.01876834
0.3372	-0.018545
0.3374	-0.01682459
0.3376	-0.01504024
0.3378	-0.01464559
0.338	-0.01478947
0.3382	-0.01245628
0.3384	-0.009950359
0.3386	-0.009320074
0.3388	-0.01223585
0.339	-0.0114946
0.3392	-0.01118285
0.3394	-0.01208154
0.3396	-0.01423417
0.3398	-0.01444458
0.34	-0.01321426
0.3402	-0.01274463
0.3404	-0.0100314
0.3406	-0.009981355
0.3408	-0.009815924
0.341	-0.007334682
0.3412	-0.006491415
0.3414	-0.00662882
0.3416	-0.004554308
0.3418	-0.002113038
0.342	0.000889216
0.3422	0.003443308
0.3424	0.004943799
0.3426	0.002463528
0.3428	0.00164106
0.343	0.005961336
0.3432	0.007827613
0.3434	0.00869286
0.3436	0.008884427
0.3438	0.009544359
0.344	0.009799493
0.3442	0.009254511
0.3444	0.01153232
0.3446	0.01188232
0.3448	0.01279223
0.345	0.01491261
0.3452	0.01582816
0.3454	0.01816071
0.3456	0.01874804
0.3458	0.01789195
0.346	0.01675577
0.3462	0.01771035
0.3464	0.01641666
0.3466	0.0176443
0.3468	0.01817245
0.347	0.01674885
0.3472	0.01814242
0.3474	0.01901929
0.3476	0.02003847
0.3478	0.02027731
0.348	0.02247062
0.3482	0.0214089
0.3484	0.02045942
0.3486	0.01750169
0.3488	0.01485064
0.349	0.0143625
0.3492	0.01381001
0.3494	0.01278884
0.3496	0.01271581
0.3498	0.01573052
0.35	0.01333574
0.3502	0.0123912
0.3504	0.01149336
0.3506	0.00807823
0.3508	0.007429622
0.351	0.007301534
0.3512	0.008284662
0.3514	0.00761262
0.3516	0.007253998
0.3518	0.003951211
0.352	0.00101228
0.3522	0.002180464
0.3524	0.001496586
0.3526	0.0002540046
0.3528	-0.001516201
0.353	-0.004265697
0.3532	-0.006282983
0.3534	-0.005149601
0.3536	-0.00640253
0.3538	-0.007371909
0.354	-0.007111561
0.3542	-0.00779748
0.3544	-0.006741364
0.3546	-0.008058315
0.3548	-0.009032348
0.355	-0.01103226
0.3552	-0.01372638
0.3554	-0.0154239
0.3556	-0.01908917
0.3558	-0.0196277
0.356	-0.01816732
0.3562	-0.01874934
0.3564	-0.0189243
0.3566	-0.02028115
0.3568	-0.01909704
0.357	-0.01832286
0.3572	-0.01824729
0.3574	-0.01844392
0.3576	-0.01684005
0.3578	-0.01493064
0.358	-0.01696812
0.3582	-0.01707447
0.3584	-0.01732295
0.3586	-0.0170734
0.3588	-0.01656428
0.359	-0.01604748
0.3592	-0.01680488
0.3594	-0.01586425
0.3596	-0.01213384
0.3598	-0.01156903
0.36	-0.01086101
0.3602	-0.01010356
0.3604	-0.009358372
0.3606	-0.007224759
0.3608	-0.005357744
0.361	-0.006051015
0.3612	-0.005288491
0.3614	-0.00364165
0.3616	-0.003798967
0.3618	-0.003682253
0.362	-0.00326471
0.3622	-0.001951917
0.3624	-0.001774749
0.3626	0.002675061
0.3628	0.003439557
0.363	0.00505941
0.3632	0.00625273
0.3634	0.00521288
0.3636	0.006772334
0.3638	0.007396215
0.364	0.01004198
0.3642	0.01128671
0.3644	0.01148011
0.3646	0.01266627
0.3648	0.0126706
0.365	0.01392911
0.3652	0.01249811
0.3654	0.01161292
0.3656	0.0105323
0.3658	0.0113747
0.366	0.01208534
0.3662	0.01292835
0.3664	0.01124102
0.3666	0.01255789
0.3668	0.01388876
0.367	0.012731
0.3672	0.01528734
0.3674	0.01375181
0.3676	0.01204193
0.3678	0.01276869
0.368	0.01576452
0.3682	0.01461282
0.3684	0.01287037
0.3686	0.01387953
0.3688	0.01187492
0.369	0.01270961
0.3692	0.01251605
0.3694	0.01171719
0.3696	0.01169824
0.3698	0.0133039
0.37	0.0122318
0.3702	0.01141715
0.3704	0.01186898
0.3706	0.009249817
0.3708	0.008995005
0.371	0.008239852
0.3712	0.008031194
0.3714	0.008536781
0.3716	0.007028411
0.3718	0.006384001
0.372	0.002643529
0.3722	0.001384475
0.3724	-0.0002944073
0.3726	-0.001019202
0.3728	-0.001390315
0.373	-0.00163927
0.3732	-0.002396323
0.3734	-0.004915458
0.3736	-0.00561208
0.3738	-0.008907641
0.374	-0.007718788
0.3742	-0.006673123
0.3744	-0.008585477
0.3746	-0.008013131
0.3748	-0.009711806
0.375	-0.01207591
0.3752	-0.01465029
0.3754	-0.01502293
0.3756	-0.0149421
0.3758	-0.0154428
0.376	-0.01412694
0.3762	-0.01470818
0.3764	-0.01635464
0.3766	-0.01615966
0.3768	-0.01672357
0.377	-0.01805965
0.3772	-0.01829582
0.3774	-0.01614268
0.3776	-0.015168
0.3778	-0.01485343
0.378	-0.01731635
0.3782	-0.0178336
0.3784	-0.01625318
0.3786	-0.01539902
0.3788	-0.01591565
0.379	-0.01476862
0.3792	-0.01209944
0.3794	-0.012113
0.3796	-0.01194936
0.3798	-0.01241005
0.38	-0.01230985
0.3802	-0.01066663
0.3804	-0.009213923
0.3806	-0.008758893
0.3808	-0.0070183
0.381	-0.005465284
0.3812	-0.006354313
0.3814	-0.005107224
0.3816	-0.003551657
0.3818	-0.003932017
0.382	-0.003624029
0.3822	-0.001096665
0.3824	0.0007035696
0.3826	0.002462473
0.3828	0.00399516
0.383	0.004239888
0.3832	0.005616916
0.3834	0.003890946
0.3836	0.00447301
0.3838	0.005362318
0.384	0.007007418
0.3842	0.007951963
0.3844	0.01056104
0.3846	0.009083442
0.3848	0.008928914
0.385	0.01099126
0.3852	0.01189494
0.3854	0.01375162
0.3856	0.01523413
0.3858	0.01746431
0.386	0.01845471
0.3862	0.01928463
0.3864	0.0179351
0.3866	0.01728202
0.3868	0.01702119
0.387	0.01706679
0.3872	0.01674205
0.3874	0.01798069
0.3876	0.01806917
0.3878	0.01857419
0.388	0.01833799
0.3882	0.016166
0.3884	0.01628119
0.3886	0.01509637
0.3888	0.01277249
0.389	0.01151759
0.3892	0.01104145
0.3894	0.009209781
0.3896	0.008607611
0.3898	0.01008954
0.39	0.009158003
0.3902	0.007588062
0.3904	0.006035169
0.3906	0.003475606
0.3908	0.004671142
0.391	0.005294785
0.3912	0.006307015
0.3914	0.003476969
0.3916	0.001425253
0.3918	-0.0007253013
0.392	-0.001492962
0.3922	-4.254025e-5
0.3924	-0.002865727
0.3926	-0.003992757
0.3928	-0.003932774
0.393	-0.004631184
0.3932	-0.006891157
0.3934	-0.007249615
0.3936	-0.00878197
0.3938	-0.009253811
0.394	-0.01027915
0.3942	-0.00975219
0.3944	-0.009868204
0.3946	-0.008953894
0.3948	-0.009123408
0.395	-0.01103109
0.3952	-0.01038031
0.3954	-0.01302513
0.3956	-0.01449145
0.3958	-0.01632846
0.396	-0.01840595
0.3962	-0.0164429
0.3964	-0.01626342
0.3966	-0.01563537
0.3968	-0.01655397
0.397	-0.01836641
0.3972	-0.01547457
0.3974	-0.01664383
0.3976	-0.01739771
0.3978	-0.0154434
0.398	-0.01572823
0.3982	-0.01795036
0.3984	-0.01833193
0.3986	-0.0173704
0.3988	-0.01658186
0.399	-0.01573737
0.3992	-0.01530445
0.3994	-0.01534618
0.3996	-0.01285881
0.3998	-0.01220369
0.4	-0.01255561
0.4002	-0.0128668
0.4004	-0.01266895
0.4006	-0.01149192
0.4008	-0.008915802
0.401	-0.007487657
0.4012	-0.008932585
0.4014	-0.007013062
0.4016	-0.003852593
0.4018	-0.002043281
0.402	-0.001145482
0.4022	-0.0004092621
0.4024	0.0002134987
0.4026	0.0005305089
0.4028	0.003141281
0.403	0.004295849
0.4032	0.006634639
0.4034	0.008835717
0.4036	0.009588269
0.4038	0.0115182
0.404	0.0129588
0.4042	0.01289288
0.4044	0.01398778
0.4046	0.01433446
0.4048	0.01257875
0.405	0.01332519
0.4052	0.01438442
0.4054	0.01478947
0.4056	0.01535837
0.4058	0.01418763
0.406	0.01393452
0.4062	0.01717251
0.4064	0.01735287
0.4066	0.0175743
0.4068	0.01901747
0.407	0.01952164
0.4072	0.01958505
0.4074	0.020673
0.4076	0.0191796
0.4078	0.0188275
0.408	0.02044581
0.4082	0.01906942
0.4084	0.01873228
0.4086	0.0171656
0.4088	0.01558006
0.409	0.01581619
0.4092	0.01609159
0.4094	0.01527187
0.4096	0.01485844
0.4098	0.01140078
0.41	0.01161069
0.4102	0.01131867
0.4104	0.009219972
0.4106	0.009216302
0.4108	0.008943629
0.411	0.009279915
0.4112	0.008924987
0.4114	0.008614432
0.4116	0.00358579
0.4118	0.002595992
0.412	0.0008479266
0.4122	-0.001467483
0.4124	-0.00127505
0.4126	-0.0008241326
0.4128	-0.0007611886
0.413	-0.002149515
0.4132	-0.002294109
0.4134	-0.005029515
0.4136	-0.00580301
0.4138	-0.007209686
0.414	-0.008465291
0.4142	-0.008354416
0.4144	-0.009317249
0.4146	-0.01181138
0.4148	-0.01196358
0.415	-0.01039788
0.4152	-0.01189469
0.4154	-0.01246424
0.4156	-0.01124272
0.4158	-0.01374947
0.416	-0.01592897
0.4162	-0.01578866
0.4164	-0.01659149
0.4166	-0.01561836
0.4168	-0.01589562
0.417	-0.01498715
0.4172	-0.01679123
0.4174	-0.01675448
0.4176	-0.01632459
0.4178	-0.01721731
0.418	-0.01766271
0.4182	-0.01700582
0.4184	-0.01652035
0.4186	-0.01546011
0.4188	-0.01301655
0.419	-0.01443542
0.4192	-0.01288887
0.4194	-0.01243477
0.4196	-0.01272996
0.4198	-0.0121631
0.42	-0.01359069
0.4202	-0.01251541
0.4204	-0.01147571
0.4206	-0.01199025
0.4208	-0.013387
0.421	-0.01345263
0.4212	-0.0140888
0.4214	-0.01291522
0.4216	-0.0107472
0.4218	-0.008664011
0.422	-0.005997791
0.4222	-0.003587033
0.4224	-0.00128886
0.4226	-0.001250518
0.4228	0.0003486034
0.423	0.003469443
0.4232	0.005649369
0.4234	0.008843079
0.4236	0.01049416
0.4238	0.01305389
0.424	0.0145362
0.4242	0.01467175
0.4244	0.01472641
0.4246	0.0120945
0.4248	0.01220764
0.425	0.01335724
0.4252	0.01269789
0.4254	0.01329731
0.4256	0.01452873
0.4258	0.01699037
0.426	0.01633734
0.4262	0.01800615
0.4264	0.01799742
0.4266	0.01806826
0.4268	0.01792029
0.427	0.0172434
0.4272	0.01724458
0.4274	0.01560979
0.4276	0.01602205
0.4278	0.01685586
0.428	0.01865693
0.4282	0.01637706
0.4284	0.01601931
0.4286	0.01398326
0.4288	0.01086656
0.429	0.01032588
0.4292	0.01154892
0.4294	0.01276382
0.4296	0.01442422
0.4298	0.01458151
0.43	0.0118429
0.4302	0.01082228
0.4304	0.008801871
0.4306	0.007959704
0.4308	0.007776105
0.431	0.009674489
0.4312	0.009949951
0.4314	0.00796815
0.4316	0.005108708
0.4318	0.004494051
0.432	0.005417548
0.4322	0.003030907
0.4324	-0.0005213289
0.4326	-0.0001399907
0.4328	0.0003484502
0.433	-0.001151946
0.4332	-0.00131358
0.4334	-0.004819297
0.4336	-0.00729539
0.4338	-0.007691567
0.434	-0.007805475
0.4342	-0.008898564
0.4344	-0.009584117
0.4346	-0.01087897
0.4348	-0.01003597
0.435	-0.009990726
0.4352	-0.01173743
0.4354	-0.01090082
0.4356	-0.01152309
0.4358	-0.01359498
0.436	-0.01499899
0.4362	-0.01490671
0.4364	-0.01558755
0.4366	-0.01327513
0.4368	-0.0141393
0.437	-0.01644034
0.4372	-0.01469623
0.4374	-0.01408732
0.4376	-0.01552789
0.4378	-0.01589768
0.438	-0.01479797
0.4382	-0.01501486
0.4384	-0.01529851
0.4386	-0.01404181
0.4388	-0.01313561
0.439	-0.01276453
0.4392	-0.01323134
0.4394	-0.01415885
0.4396	-0.01520574
0.4398	-0.01564287
0.44	-0.01253065
0.4402	-0.009611119
0.4404	-0.009085452
0.4406	-0.01043339
0.4408	-0.008829772
0.441	-0.007921521
0.4412	-0.00760047
0.4414	-0.007303591
0.4416	-0.006579938
0.4418	-0.006447449
0.442	-0.004438782
0.4422	-0.004422815
0.4424	-0.00401773
0.4426	-0.002490563
0.4428	-0.002862599
0.443	0.0007246704
0.4432	0.00281709
0.4434	0.004997309
0.4436	0.007234547
0.4438	0.007820703
0.444	0.01060124
0.4442	0.01048487
0.4444	0.01074074
0.4446	0.009576336
0.4448	0.007877408
0.445	0.009857009
0.4452	0.01043916
0.4454	0.01252735
0.4456	0.01354691
0.4458	0.01662
0.446	0.01430247
0.4462	0.01433204
0.4464	0.01732733
0.4466	0.01807051
0.4468	0.01780432
0.447	0.0175128
0.4472	0.01721541
0.4474	0.01597229
0.4476	0.01687474
0.4478	0.01617699
0.448	0.01551562
0.4482	0.01625167
0.4484	0.01451254
0.4486	0.01202447
0.4488	0.01128629
0.449	0.01249811
0.4492	0.01240314
0.4494	0.01227214
0.4496	0.01299103
0.4498	0.009523568
0.45	0.008083679
0.4502	0.007604985
0.4504	0.00602345
0.4506	0.006061741
0.4508	0.005910823
0.451	0.006493724
0.4512	0.006548526
0.4514	0.006925276
0.4516	0.007270999
0.4518	0.003954924
0.452	0.002394877
0.4522	-0.0009162945
0.4524	-0.002795967
0.4526	-0.003156379
0.4528	-0.002548582
0.453	-0.001689229
0.4532	-0.003594678
0.4534	-0.006122467
0.4536	-0.007335423
0.4538	-0.008286204
0.454	-0.00823824
0.4542	-0.008886117
0.4544	-0.01031322
0.4546	-0.009603271
0.4548	-0.008909405
0.455	-0.009825413
0.4552	-0.01095725
0.4554	-0.01099728
0.4556	-0.01227554
0.4558	-0.01426359
0.456	-0.01211952
0.4562	-0.01419688
0.4564	-0.01631721
0.4566	-0.01727859
0.4568	-0.01833756
0.457	-0.01785125
0.4572	-0.01607113
0.4574	-0.01505057
0.4576	-0.01502466
0.4578	-0.01273279
0.458	-0.01405354
0.4582	-0.01494466
0.4584	-0.0132092
0.4586	-0.01261482
0.4588	-0.01296519
0.459	-0.01128903
0.4592	-0.01086372
0.4594	-0.0125625
0.4596	-0.01188087
0.4598	-0.01189166
0.46	-0.01036804
0.4602	-0.008895979
0.4604	-0.008505414
0.4606	-0.00808215
0.4608	-0.006296149
0.461	-0.004198024
0.4612	-0.004582944
0.4614	-0.004364311
0.4616	-0.00414984
0.4618	-0.004255441
0.462	-0.003323325
0.4622	-0.001666551
0.4624	0.001285307
0.4626	0.003262494
0.4628	0.004447472
0.463	0.004840846
0.4632	0.005963509
0.4634	0.007608447
0.4636	0.006017036
0.4638	0.006692925
0.464	0.007712468
0.4642	0.008680913
0.4644	0.009502723
0.4646	0.01127206
0.4648	0.01207912
0.465	0.01191074
0.4652	0.01404949
0.4654	0.01409939
0.4656	0.01567399
0.4658	0.01770533
0.466	0.01814457
0.4662	0.01805451
0.4664	0.01986765
0.4666	0.02176298
0.4668	0.02022258
0.467	0.01937899
0.4672	0.01832735
0.4674	0.01885319
0.4676	0.01964609
0.4678	0.01989417
0.468	0.02002841
0.4682	0.02275658
0.4684	0.01913051
0.4686	0.01625433
0.4688	0.01730241
0.469	0.01730377
0.4692	0.01559335
0.4694	0.01392728
0.4696	0.01391031
0.4698	0.0134641
0.47	0.01165194
0.4702	0.01163041
0.4704	0.01100929
0.4706	0.006989826
0.4708	0.007812364
0.471	0.00804097
0.4712	0.00747752
0.4714	0.005181968
0.4716	0.00297554
0.4718	0.0004803018
0.472	-0.001028516
0.4722	-0.001099839
0.4724	-0.005722677
0.4726	-0.006990076
0.4728	-0.006997199
0.473	-0.0100378
0.4732	-0.01193713
0.4734	-0.01316764
0.4736	-0.0139526
0.4738	-0.01384579
0.474	-0.01167128
0.4742	-0.01163204
0.4744	-0.0133028
0.4746	-0.01348206
0.4748	-0.01489666
0.475	-0.01590699
0.4752	-0.01662282
0.4754	-0.01794633
0.4756	-0.01837949
0.4758	-0.01773127
0.476	-0.01535229
0.4762	-0.01607116
0.4764	-0.01731454
0.4766	-0.01857942
0.4768	-0.01922261
0.477	-0.02025479
0.4772	-0.02103955
0.4774	-0.02169115
0.4776	-0.02111238
0.4778	-0.01886024
0.478	-0.01912821
0.4782	-0.01842654
0.4784	-0.01591373
0.4786	-0.01546491
0.4788	-0.01544465
0.479	-0.01669979
0.4792	-0.01637864
0.4794	-0.0160254
0.4796	-0.01523857
0.4798	-0.01379841
0.48	-0.01463672
0.4802	-0.01222204
0.4804	-0.01178408
0.4806	-0.01147612
0.4808	-0.01027005
0.481	-0.009035199
0.4812	-0.009028619
0.4814	-0.007317739
0.4816	-0.005076409
0.4818	-0.005023899
0.482	-0.002047722
0.4822	-0.001634175
0.4824	-0.0003446299
0.4826	0.001404108
0.4828	0.001224874
0.483	0.001932812
0.4832	0.005002708
0.4834	0.008997166
0.4836	0.007185912
0.4838	0.008551119
0.484	0.01067624
0.4842	0.009412446
0.4844	0.00823238
0.4846	0.009582104
0.4848	0.009819626
0.485	0.009489062
0.4852	0.01018161
0.4854	0.01334362
0.4856	0.01387597
0.4858	0.01343357
0.486	0.01640626
0.4862	0.01735465
0.4864	0.01896199
0.4866	0.02139871
0.4868	0.02187479
0.487	0.02221368
0.4872	0.02237891
0.4874	0.02222986
0.4876	0.02062017
0.4878	0.01872548
0.488	0.01801486
0.4882	0.01726326
0.4884	0.01659528
0.4886	0.01734318
0.4888	0.01683085
0.489	0.01669653
0.4892	0.01627689
0.4894	0.01324819
0.4896	0.01452111
0.4898	0.01428956
0.49	0.01366762
0.4902	0.01337031
0.4904	0.01306503
0.4906	0.0106636
0.4908	0.009290897
0.491	0.00765638
0.4912	0.007953226
0.4914	0.008670155
0.4916	0.007211454
0.4918	0.005657183
0.492	0.004352995
0.4922	0.002967506
0.4924	0.001429988
0.4926	0.001825772
0.4928	0.00211346
0.493	-0.0008534409
0.4932	-0.002436642
0.4934	-0.00273502
0.4936	-0.003388053
0.4938	-0.004489882
0.494	-0.006844809
0.4942	-0.009472664
0.4944	-0.01064412
0.4946	-0.008557036
0.4948	-0.008745668
0.495	-0.01128202
0.4952	-0.01214574
0.4954	-0.0132851
0.4956	-0.01376758
0.4958	-0.0141114
0.496	-0.01511591
0.4962	-0.01461071
0.4964	-0.01633229
0.4966	-0.01468406
0.4968	-0.01482234
0.497	-0.0145403
0.4972	-0.01340634
0.4974	-0.01461204
0.4976	-0.01573196
0.4978	-0.01727424
0.498	-0.0184033
0.4982	-0.01804314
0.4984	-0.01650517
0.4986	-0.01420784
0.4988	-0.01482106
0.499	-0.01524741
0.4992	-0.01520139
0.4994	-0.01627659
0.4996	-0.01571277
0.4998	-0.01497995
0.5	-0.01372846
0.5002	-0.01335807
0.5004	-0.009514221
0.5006	-0.007442955
0.5008	-0.00689586
0.501	-0.006705655
0.5012	-0.006513936
0.5014	-0.006907828
0.5016	-0.007493086
0.5018	-0.006215057
0.502	-0.004957154
0.5022	-0.002672435
0.5024	-0.004022084
0.5026	-0.005896873
0.5028	-0.003637412
0.503	-0.001085322
0.5032	0.001142757
0.5034	0.003015066
0.5036	0.003408123
0.5038	0.004031525
0.504	0.005065254
0.5042	0.005210286
0.5044	0.007278169
0.5046	0.007049893
0.5048	0.009129432
0.505	0.01209043
0.5052	0.01328072
0.5054	0.01397693
0.5056	0.01510511
0.5058	0.01675388
0.506	0.01856065
0.5062	0.02028886
0.5064	0.01830141
0.5066	0.0189096
0.5068	0.0193659
0.507	0.01808367
0.5072	0.01687104
0.5074	0.01712782
0.5076	0.01891788
0.5078	0.01869486
0.508	0.01819354
0.5082	0.01833679
0.5084	0.01721235
0.5086	0.01702199
0.5088	0.01617944
0.509	0.01347197
0.5092	0.01244752
0.5094	0.0135088
0.5096	0.01447553
0.5098	0.0137273
0.51	0.01528452
0.5102	0.01361636
0.5104	0.0100868
0.5106	0.0112376
0.5108	0.01162261
0.511	0.008285319
0.5112	0.006475613
0.5114	0.004796291
0.5116	0.003823257
0.5118	0.001198965
0.512	-0.0004405202
0.5122	-0.001092168
0.5124	-0.004206712
0.5126	-0.005244404
0.5128	-0.005569663
0.513	-0.005924518
0.5132	-0.007149265
0.5134	-0.007507675
0.5136	-0.009630273
0.5138	-0.01287628
0.514	-0.01323755
0.5142	-0.01338716
0.5144	-0.0137179
0.5146	-0.01123559
0.5148	-0.01073175
0.515	-0.01105954
0.5152	-0.01223406
0.5154	-0.01340797
0.5156	-0.01402286
0.5158	-0.01473548
0.516	-0.01396693
0.5162	-0.0150776
0.5164	-0.01592817
0.5166	-0.0137489
0.5168	-0.0152788
0.517	-0.0171077
0.5172	-0.01828433
0.5174	-0.01815698
0.5176	-0.01694297
0.5178	-0.0154326
0.518	-0.01334486
0.5182	-0.01147891
0.5184	-0.01215475
0.5186	-0.01471254
0.5188	-0.01664599
0.519	-0.01557926
0.5192	-0.01485495
0.5194	-0.01440751
0.5196	-0.01408653
0.5198	-0.01095355
0.52	-0.010817
0.5202	-0.01234657
0.5204	-0.009993023
0.5206	-0.01004597
0.5208	-0.008753195
0.521	-0.007141649
0.5212	-0.006545412
0.5214	-0.006384131
0.5216	-0.005164198
0.5218	-0.004811026
0.522	-0.00400792
0.5222	-0.0007952467
0.5224	-0.001033658
0.5226	0.001811452
0.5228	0.002145772
0.523	0.003580869
0.5232	0.003080311
0.5234	0.003913992
0.5236	0.00678231
0.5238	0.006149934
0.524	0.009205542
0.5242	0.01108119
0.5244	0.009672401
0.5246	0.008538102
0.5248	0.008448643
0.525	0.009508079
0.5252	0.01019114
0.5254	0.01305352
0.5256	0.01455459
0.5258	0.01610043
0.526	0.01833207
0.5262	0.0181585
0.5264	0.01892329
0.5266	0.01943682
0.5268	0.01877672
0.527	0.01894802
0.5272	0.01985815
0.5274	0.0202966
0.5276	0.01935633
0.5278	0.01980071
0.528	0.01941592
0.5282	0.01978913
0.5284	0.01804481
0.5286	0.01753715
0.5288	0.01765245
0.529	0.01850979
0.5292	0.01836968
0.5294	0.01777118
0.5296	0.01788034
0.5298	0.01700933
0.53	0.01495902
0.5302	0.01278722
0.5304	0.0131385
0.5306	0.01101482
0.5308	0.01048396
0.531	0.009574418
0.5312	0.007451657
0.5314	0.005861592
0.5316	0.003921505
0.5318	0.002936894
0.532	0.001156692
0.5322	0.0008569874
0.5324	-0.001029391
0.5326	-0.0006017836
0.5328	7.620722e-5
0.533	-0.003239068
0.5332	-0.005357298
0.5334	-0.005533067
0.5336	-0.008233869
0.5338	-0.009709913
0.534	-0.009920963
0.5342	-0.009744352
0.5344	-0.01084416
0.5346	-0.01131285
0.5348	-0.009728305
0.535	-0.0108663
0.5352	-0.01150292
0.5354	-0.0117893
0.5356	-0.01463486
0.5358	-0.01684158
0.536	-0.01539622
0.5362	-0.0157687
0.5364	-0.01655515
0.5366	-0.01702502
0.5368	-0.01713631
0.537	-0.01804214
0.5372	-0.01823954
0.5374	-0.01701135
0.5376	-0.01863701
0.5378	-0.01828979
0.538	-0.01755701
0.5382	-0.01576495
0.5384	-0.01615296
0.5386	-0.01507427
0.5388	-0.01456206
0.539	-0.01536881
0.5392	-0.01392723
0.5394	-0.01250432
0.5396	-0.01263364
0.5398	-0.01325346
0.54	-0.01247053
0.5402	-0.01116825
0.5404	-0.01027132
0.5406	-0.008187067
0.5408	-0.00680519
0.541	-0.008525991
0.5412	-0.007408628
0.5414	-0.007089656
0.5416	-0.007313662
0.5418	-0.004749703
0.542	-0.002687677
0.5422	0.0005688768
0.5424	-3.052672e-6
0.5426	0.001781346
0.5428	0.002272478
0.543	0.002059163
0.5432	0.004521522
0.5434	0.006555166
0.5436	0.006459778
0.5438	0.007279545
0.544	0.009220628
0.5442	0.01078458
0.5444	0.01109448
0.5446	0.0130439
0.5448	0.01358368
0.545	0.01268861
0.5452	0.015483
0.5454	0.01554741
0.5456	0.01478655
0.5458	0.01607889
0.546	0.0163997
0.5462	0.01608448
0.5464	0.01717436
0.5466	0.01765022
0.5468	0.02154557
0.547	0.01929424
0.5472	0.01683862
0.5474	0.01791827
0.5476	0.01649256
0.5478	0.01740613
0.548	0.01850635
0.5482	0.02001652
0.5484	0.01910507
0.5486	0.01937393
0.5488	0.02026805
0.549	0.01877375
0.5492	0.01896044
0.5494	0.01679111
0.5496	0.01663674
0.5498	0.01515884
0.55	0.01287699
0.5502	0.01099891
0.5504	0.01194231
0.5506	0.01141476
0.5508	0.006911492
0.551	0.006622352
0.5512	0.006568425
0.5514	0.00530172
0.5516	0.004886462
0.5518	0.003446052
0.552	0.0004820972
0.5522	-0.0004907649
0.5524	-0.0001616886
0.5526	-0.00158168
0.5528	-0.005670396
0.553	-0.006622319
0.5532	-0.007121209
0.5534	-0.009743135
0.5536	-0.0111444
0.5538	-0.01145789
0.554	-0.01359779
0.5542	-0.01431581
0.5544	-0.01412074
0.5546	-0.01170555
0.5548	-0.01146402
0.555	-0.01496983
0.5552	-0.01567616
0.5554	-0.0174502
0.5556	-0.01745673
0.5558	-0.0173895
0.556	-0.01737944
0.5562	-0.01775571
0.5564	-0.01918543
0.5566	-0.0174475
0.5568	-0.01846216
0.557	-0.01819493
0.5572	-0.01775297
0.5574	-0.01931873
0.5576	-0.01966003
0.5578	-0.02018837
0.558	-0.02055159
0.5582	-0.01997613
0.5584	-0.01791621
0.5586	-0.01759738
0.5588	-0.01607771
0.559	-0.01526297
0.5592	-0.01265182
0.5594	-0.01232008
0.5596	-0.01239881
0.5598	-0.01214463
0.56	-0.01032239
0.5602	-0.009816792
0.5604	-0.009052567
0.5606	-0.005719705
0.5608	-0.005683158
0.561	-0.006673194
0.5612	-0.007608728
0.5614	-0.007151468
0.5616	-0.007834259
0.5618	-0.005056526
0.562	-0.002034157
0.5622	0.0004930653
0.5624	0.003439079
0.5626	0.00282107
0.5628	0.003632599
0.563	0.004627282
0.5632	0.007612923
0.5634	0.008317466
0.5636	0.009258586
0.5638	0.008501962
0.564	0.007860876
0.5642	0.008708737
0.5644	0.009150265
0.5646	0.009550069
0.5648	0.01047963
0.565	0.01062072
0.5652	0.01074695
0.5654	0.0106242
0.5656	0.01196635
0.5658	0.01348855
0.566	0.01277037
0.5662	0.01431769
0.5664	0.01516163
0.5666	0.01660235
0.5668	0.0182348
0.567	0.01920217
0.5672	0.01854277
0.5674	0.01845042
0.5676	0.01855091
0.5678	0.01672705
0.568	0.01568666
0.5682	0.01489053
0.5684	0.01435878
0.5686	0.0130082
0.5688	0.01300494
0.569	0.01220306
0.5692	0.0130101
0.5694	0.01344752
0.5696	0.01246532
0.5698	0.0101729
0.57	0.008033817
0.5702	0.006989388
0.5704	0.00527631
0.5706	0.007948189
0.5708	0.008589302
0.571	0.007880673
0.5712	0.009078674
0.5714	0.006178882
0.5716	0.002609695
0.5718	0.000939424
0.572	0.001300602
0.5722	0.0008920816
0.5724	5.482447e-5
0.5726	-1.430738e-5
0.5728	-0.003085689
0.573	-0.004020785
0.5732	-0.005753884
0.5734	-0.008085406
0.5736	-0.007876426
0.5738	-0.007397637
0.574	-0.006708627
0.5742	-0.009334849
0.5744	-0.00970675
0.5746	-0.01156646
0.5748	-0.0108875
0.575	-0.01103881
0.5752	-0.0127831
0.5754	-0.01321975
0.5756	-0.01568898
0.5758	-0.01743575
0.576	-0.01694896
0.5762	-0.01527479
0.5764	-0.01639097
0.5766	-0.01649137
0.5768	-0.01800923
0.577	-0.01811017
0.5772	-0.01799844
0.5774	-0.01720364
0.5776	-0.01827604
0.5778	-0.01777568
0.578	-0.01773927
0.5782	-0.01797522
0.5784	-0.01642064
0.5786	-0.01650684
0.5788	-0.01653487
0.579	-0.01537477
0.5792	-0.01543962
0.5794	-0.01578558
0.5796	-0.01320218
0.5798	-0.01287129
0.58	-0.01189844
0.5802	-0.01132533
0.5804	-0.01196941
0.5806	-0.01109635
0.5808	-0.009765535
0.581	-0.007546842
0.5812	-0.006236374
0.5814	-0.004817895
0.5816	-0.005176011
0.5818	-0.004242843
0.582	-0.002239122
0.5822	-0.001489475
0.5824	-0.0003290921
0.5826	0.001427176
0.5828	0.003632179
0.583	0.005624839
0.5832	0.008545734
0.5834	0.009361894
0.5836	0.01039407
0.5838	0.01101415
0.584	0.007980337
0.5842	0.008254959
0.5844	0.009708119
0.5846	0.01116042
0.5848	0.01153783
0.585	0.01432068
0.5852	0.01332831
0.5854	0.01307346
0.5856	0.01670152
0.5858	0.01698699
0.586	0.01704869
0.5862	0.0189313
0.5864	0.02013498
0.5866	0.01923857
0.5868	0.02249954
0.587	0.02146465
0.5872	0.02083668
0.5874	0.01922437
0.5876	0.01848745
0.5878	0.01862936
0.588	0.01883893
0.5882	0.02010269
0.5884	0.01854986
0.5886	0.02016829
0.5888	0.01958793
0.589	0.01703079
0.5892	0.01675699
0.5894	0.01682571
0.5896	0.01424255
0.5898	0.01276135
0.59	0.01300177
0.5902	0.01347934
0.5904	0.01132246
0.5906	0.009759159
0.5908	0.007984048
0.591	0.005637289
0.5912	0.007443687
0.5914	0.007062664
0.5916	0.005616625
0.5918	0.004662172
0.592	0.002737595
0.5922	0.002077656
0.5924	0.0001266279
0.5926	0.0003795923
0.5928	0.0007990052
0.593	-0.001656061
0.5932	-0.002779796
0.5934	-0.003984599
0.5936	-0.004911366
0.5938	-0.00730361
0.594	-0.007230588
0.5942	-0.007458406
0.5944	-0.007010171
0.5946	-0.008642652
0.5948	-0.01055828
0.595	-0.01046976
0.5952	-0.01172401
0.5954	-0.01233455
0.5956	-0.01466917
0.5958	-0.01499467
0.596	-0.01656118
0.5962	-0.018268
0.5964	-0.02071488
0.5966	-0.02115888
0.5968	-0.02055156
0.597	-0.02210033
0.5972	-0.02220649
0.5974	-0.0224441
0.5976	-0.02261953
0.5978	-0.02470459
0.598	-0.02409536
0.5982	-0.02399897
0.5984	-0.02340884
0.5986	-0.02249607
0.5988	-0.02327607
0.599	-0.02219406
0.5992	-0.02102719
0.5994	-0.01939581
0.5996	-0.01941792
0.5998	-0.0174602
0.6	-0.01705981
0.6002	-0.0173672
0.6004	-0.01364338
0.6006	-0.01231207
0.6008	-0.0109361
0.601	-0.0102641
0.6012	-0.00904245
0.6014	-0.00865441
0.6016	-0.00443536
0.6018	-0.002530019
0.602	0.0006601191
0.6022	0.00202227
0.6024	-0.000166277
0.6026	-0.0006829795
0.6028	-0.0005053024
0.603	0.001178481
0.6032	0.00168935
0.6034	0.00449527
0.6036	0.005635371
0.6038	0.007173154
0.604	0.008561043
0.6042	0.01003715
0.6044	0.01076072
0.6046	0.01263628
0.6048	0.01445691
0.605	0.01652698
0.6052	0.01617989
0.6054	0.01753291
0.6056	0.0180224
0.6058	0.01784616
0.606	0.01789957
0.6062	0.01750476
0.6064	0.01900791
0.6066	0.01879029
0.6068	0.0189795
0.607	0.01634445
0.6072	0.01788014
0.6074	0.01953582
0.6076	0.01937921
0.6078	0.02165402
0.608	0.02150627
0.6082	0.0207528
0.6084	0.01924414
0.6086	0.01888444
0.6088	0.01805208
0.609	0.01623631
0.6092	0.01677107
0.6094	0.01650927
0.6096	0.01583948
0.6098	0.01314488
0.61	0.01175674
0.6102	0.01203281
0.6104	0.01189243
0.6106	0.01278688
0.6108	0.01312984
0.611	0.01048979
0.6112	0.01083799
0.6114	0.008664467
0.6116	0.004899396
0.6118	0.002472393
0.612	0.001909971
0.6122	0.004408776
0.6124	0.002892217
0.6126	0.001636398
0.6128	-0.000788484
0.613	-0.002269762
0.6132	-0.003256729
0.6134	-0.005030076
0.6136	-0.005223817
0.6138	-0.006454682
0.614	-0.007296351
0.6142	-0.009393195
0.6144	-0.009470743
0.6146	-0.009266236
0.6148	-0.009806602
0.615	-0.01145686
0.6152	-0.0127322
0.6154	-0.01331641
0.6156	-0.01427556
0.6158	-0.01461108
0.616	-0.0133808
0.6162	-0.01494359
0.6164	-0.0179401
0.6166	-0.01903078
0.6168	-0.01956202
0.617	-0.02034395
0.6172	-0.02072761
0.6174	-0.02058991
0.6176	-0.02018465
0.6178	-0.01828074
0.618	-0.02015718
0.6182	-0.01722248
0.6184	-0.01435417
0.6186	-0.01442457
0.6188	-0.01328967
0.619	-0.01426786
0.6192	-0.01349346
0.6194	-0.01313091
0.6196	-0.01184846
0.6198	-0.0113961
0.62	-0.01031257
0.6202	-0.009294644
0.6204	-0.009588
0.6206	-0.01019707
0.6208	-0.008285608
0.621	-0.007003332
0.6212	-0.007681844
0.6214	-0.006560581
0.6216	-0.005719929
0.6218	-0.002702723
0.622	-0.0008048055
0.6222	-0.0003892518
0.6224	3.936615e-5
0.6226	0.001535187
0.6228	0.002037921
0.623	0.004473669
0.6232	0.007318319
0.6234	0.009936396
0.6236	0.0114518
0.6238	0.01184833
0.624	0.01252572
0.6242	0.01146052
0.6244	0.01196024
0.6246	0.01213701
0.6248	0.01242514
0.625	0.01228654
0.6252	0.01340735
0.6254	0.01315584
0.6256	0.01367993
0.6258	0.01471516
0.626	0.016193
0.6262	0.01643022
0.6264	0.01854898
0.6266	0.01892363
0.6268	0.01847013
0.627	0.0187431
0.6272	0.01819776
0.6274	0.01817893
0.6276	0.01705872
0.6278	0.01845215
0.628	0.01904267
0.6282	0.01778764
0.6284	0.01748991
0.6286	0.01410455
0.6288	0.01213458
0.629	0.0108099
0.6292	0.01014398
0.6294	0.01106856
0.6296	0.01162969
0.6298	0.01091521
0.63	0.01015906
0.6302	0.01146735
0.6304	0.008899877
0.6306	0.007461261
0.6308	0.00553262
0.631	0.005710179
0.6312	0.005989015
0.6314	0.004790975
0.6316	0.002372679
0.6318	-0.0001274042
0.632	-0.003012197
0.6322	-0.001753307
0.6324	-0.00182171
0.6326	-0.003316326
0.6328	-0.003733401
0.633	-0.005784081
0.6332	-0.005514795
0.6334	-0.004878867
0.6336	-0.004430363
0.6338	-0.006747826
0.634	-0.007311574
0.6342	-0.007485664
0.6344	-0.00964223
0.6346	-0.01163558
0.6348	-0.01168175
0.635	-0.01366719
0.6352	-0.01480973
0.6354	-0.01519169
0.6356	-0.01486368
0.6358	-0.01523987
0.636	-0.01647084
0.6362	-0.01722741
0.6364	-0.01768785
0.6366	-0.01729442
0.6368	-0.01707453
0.637	-0.01709972
0.6372	-0.0166475
0.6374	-0.01695136
0.6376	-0.01707713
0.6378	-0.01707895
0.638	-0.01718749
0.6382	-0.01679748
0.6384	-0.0169313
0.6386	-0.01349542
0.6388	-0.01289379
0.639	-0.01254071
0.6392	-0.01359869
0.6394	-0.01586893
0.6396	-0.01623162
0.6398	-0.0145607
0.64	-0.0126364
0.6402	-0.01333462
0.6404	-0.01153908
0.6406	-0.01048625
0.6408	-0.01102893
0.641	-0.009263813
0.6412	-0.009877354
0.6414	-0.009313851
0.6416	-0.008669631
0.6418	-0.005337846
0.642	-0.003416568
0.6422	-0.001132338
0.6424	0.0002542366
0.6426	-0.0009478122
0.6428	0.001928945
0.643	0.003867645
0.6432	0.005122883
0.6434	0.006486923
0.6436	0.008578754
0.6438	0.008110072
0.644	0.007864112
0.6442	0.008755835
0.6444	0.007145815
0.6446	0.007446008
0.6448	0.007796738
0.645	0.008964223
0.6452	0.01116046
0.6454	0.01302836
0.6456	0.01491208
0.6458	0.0163678
0.646	0.01680264
0.6462	0.01594152
0.6464	0.01815273
0.6466	0.019412
0.6468	0.01997803
0.647	0.01968005
0.6472	0.01770673
0.6474	0.01685903
0.6476	0.01601271
0.6478	0.01566354
0.648	0.01805482
0.6482	0.01817983
0.6484	0.01702285
0.6486	0.01609466
0.6488	0.01490925
0.649	0.01372794
0.6492	0.01247586
0.6494	0.01469848
0.6496	0.01424273
0.6498	0.01423604
0.65	0.01434794
0.6502	0.01163929
0.6504	0.01009935
0.6506	0.00901528
0.6508	0.008952681
0.651	0.007399812
0.6512	0.007889015
0.6514	0.008271595
0.6516	0.007257272
0.6518	0.008002753
0.652	0.005965032
0.6522	0.003093978
0.6524	7.727965e-5
0.6526	-0.001275274
0.6528	-0.0008095843
0.653	-0.0008026072
0.6532	-0.002897386
0.6534	-0.005822483
0.6536	-0.007168416
0.6538	-0.008925701
0.654	-0.009829336
0.6542	-0.01177067
0.6544	-0.01118576
0.6546	-0.0109299
0.6548	-0.01073566
0.655	-0.01214832
0.6552	-0.01556774
0.6554	-0.01340971
0.6556	-0.01350768
0.6558	-0.0137895
0.656	-0.01503854
0.6562	-0.01601869
0.6564	-0.01796492
0.6566	-0.0183189
0.6568	-0.01934849
0.657	-0.01958953
0.6572	-0.01743388
0.6574	-0.01734717
0.6576	-0.01688725
0.6578	-0.01733207
0.658	-0.01794631
0.6582	-0.01776367
0.6584	-0.0156208
0.6586	-0.01306419
0.6588	-0.01355625
0.659	-0.01420825
0.6592	-0.01328548
0.6594	-0.01505232
0.6596	-0.015105
0.6598	-0.01490101
0.66	-0.01456154
0.6602	-0.01184749
0.6604	-0.01055533
0.6606	-0.007804989
0.6608	-0.008576337
0.661	-0.008602457
0.6612	-0.007434784
0.6614	-0.007663291
0.6616	-0.004244656
0.6618	-0.002155771
0.662	-0.002054275
0.6622	-0.002863307
0.6624	-0.002423557
0.6626	-0.002370792
0.6628	0.0002329238
0.663	0.002051529
0.6632	0.002994125
0.6634	0.005918973
0.6636	0.007218557
0.6638	0.009550557
0.664	0.01196684
0.6642	0.01190139
0.6644	0.01126811
0.6646	0.01210696
0.6648	0.01195879
0.665	0.01292907
0.6652	0.01265085
0.6654	0.0155684
0.6656	0.01549233
0.6658	0.01654354
0.666	0.01528802
0.6662	0.01379802
0.6664	0.01618858
0.6666	0.01584969
0.6668	0.01720334
0.667	0.01873268
0.6672	0.02070742
0.6674	0.02119868
0.6676	0.0207545
0.6678	0.01918644
0.668	0.01805296
0.6682	0.01789784
0.6684	0.01766128
0.6686	0.01682825
0.6688	0.01436397
0.669	0.01526679
0.6692	0.01561609
0.6694	0.01582583
0.6696	0.01692624
0.6698	0.01558447
0.67	0.01571236
0.6702	0.01575837
0.6704	0.01233931
0.6706	0.009612044
0.6708	0.007109729
0.671	0.006250675
0.6712	0.006740576
0.6714	0.007144136
0.6716	0.003796629
0.6718	0.003063862
0.672	0.0005904761
0.6722	-0.00281028
0.6724	-0.00377079
0.6726	-0.003671198
0.6728	-0.003154301
0.673	-0.005169792
0.6732	-0.005311796
0.6734	-0.004256489
0.6736	-0.006645759
0.6738	-0.008055844
0.674	-0.009620363
0.6742	-0.01180948
0.6744	-0.01311531
0.6746	-0.01167543
0.6748	-0.01248411
0.675	-0.0134402
0.6752	-0.01371235
0.6754	-0.01602653
0.6756	-0.01710969
0.6758	-0.01726896
0.676	-0.01759049
0.6762	-0.01678107
0.6764	-0.01732593
0.6766	-0.01939399
0.6768	-0.01748935
0.677	-0.01827195
0.6772	-0.01825967
0.6774	-0.01627141
0.6776	-0.01674677
0.6778	-0.018202
0.678	-0.01931029
0.6782	-0.01804743
0.6784	-0.01632692
0.6786	-0.014476
0.6788	-0.0160061
0.679	-0.01616939
0.6792	-0.01688934
0.6794	-0.01742753
0.6796	-0.01599094
0.6798	-0.01237203
0.68	-0.009539479
0.6802	-0.009401598
0.6804	-0.007403203
0.6806	-0.008000652
0.6808	-0.008057401
0.681	-0.003953683
0.6812	-0.003578449
0.6814	-0.004598347
0.6816	-0.00318511
0.6818	-0.001469775
0.682	-0.002675405
0.6822	-0.001508955
0.6824	0.003099047
0.6826	0.003150336
0.6828	0.002924313
0.683	0.001859671
0.6832	0.001616475
0.6834	0.003419749
0.6836	0.006528034
0.6838	0.009219961
0.684	0.009185637
0.6842	0.01005428
0.6844	0.01012193
0.6846	0.009488507
0.6848	0.009813032
0.685	0.01028629
0.6852	0.01169213
0.6854	0.0135224
0.6856	0.01589552
0.6858	0.01821023
0.686	0.01851565
0.6862	0.01946567
0.6864	0.01997043
0.6866	0.01804513
0.6868	0.0169358
0.687	0.01781042
0.6872	0.01788075
0.6874	0.01945616
0.6876	0.01977987
0.6878	0.01894029
0.688	0.01961739
0.6882	0.01823652
0.6884	0.01893405
0.6886	0.01919596
0.6888	0.01953049
0.689	0.01811451
0.6892	0.01664655
0.6894	0.01656303
0.6896	0.01589041
0.6898	0.0168125
0.69	0.01299296
0.6902	0.01067286
0.6904	0.01000817
0.6906	0.009434004
0.6908	0.008191541
0.691	0.007954063
0.6912	0.008302418
0.6914	0.006428496
0.6916	0.004922016
0.6918	0.002296262
0.692	0.001070042
0.6922	0.0008157176
0.6924	-8.442968e-5
0.6926	-0.001626293
0.6928	-0.0006006832
0.693	-0.002321225
0.6932	-0.005885279
0.6934	-0.006273813
0.6936	-0.00721928
0.6938	-0.007353804
0.694	-0.00799547
0.6942	-0.01028693
0.6944	-0.01188108
0.6946	-0.01014793
0.6948	-0.01018529
0.695	-0.009042669
0.6952	-0.008802903
0.6954	-0.01077053
0.6956	-0.01234629
0.6958	-0.01314429
0.696	-0.01254147
0.6962	-0.01327503
0.6964	-0.01494908
0.6966	-0.01512176
0.6968	-0.01528
0.697	-0.01408292
0.6972	-0.01355509
0.6974	-0.0128984
0.6976	-0.01453929
0.6978	-0.0159293
0.698	-0.0163977
0.6982	-0.01463464
0.6984	-0.01159211
0.6986	-0.01303156
0.6988	-0.01159011
0.699	-0.01006544
0.6992	-0.01131045
0.6994	-0.01094377
0.6996	-0.009840136
0.6998	-0.01088128
0.7	-0.01126174
0.7002	-0.009749911
0.7004	-0.01027059
0.7006	-0.008648301
0.7008	-0.006927017
0.701	-0.006644427
0.7012	-0.007105934
0.7014	-0.006239431
0.7016	-0.004667182
0.7018	-0.003822123
0.702	-0.002591807
0.7022	-0.0004921311
0.7024	0.00127742
0.7026	0.002942514
0.7028	0.007186521
0.703	0.009445576
0.7032	0.01002555
0.7034	0.01242107
0.7036	0.01534718
0.7038	0.01645181
0.704	0.01680957
0.7042	0.01729566
0.7044	0.0157845
0.7046	0.01620868
0.7048	0.01635654
0.705	0.01693527
0.7052	0.01831918
0.7054	0.01954193
0.7056	0.0194996
0.7058	0.01855113
0.706	0.0189733
0.7062	0.01792613
0.7064	0.01981617
0.7066	0.02110721
0.7068	0.02056683
0.707	0.02017628
0.7072	0.02039904
0.7074	0.02130831
0.7076	0.02072074
0.7078	0.02074529
0.708	0.02060184
0.7082	0.01914783
0.7084	0.01935983
0.7086	0.01722492
0.7088	0.01791789
0.709	0.01857862
0.7092	0.01853915
0.7094	0.017862
0.7096	0.01834548
0.7098	0.01680582
0.71	0.01454398
0.7102	0.01416342
0.7104	0.01087922
0.7106	0.007834272
0.7108	0.006576227
0.711	0.006801795
0.7112	0.006400499
0.7114	0.007964578
0.7116	0.005774835
0.7118	0.00294847
0.712	0.001694048
0.7122	0.0008428939
0.7124	0.0005715067
0.7126	-0.001088455
0.7128	-0.003003891
0.713	-0.003546114
0.7132	-0.003283433
0.7134	-0.00588084
0.7136	-0.007488896
0.7138	-0.009444921
0.714	-0.01115428
0.7142	-0.01088698
0.7144	-0.009460508
0.7146	-0.01031715
0.7148	-0.008794223
0.715	-0.008782851
0.7152	-0.01090255
0.7154	-0.01216894
0.7156	-0.01681927
0.7158	-0.01724436
0.716	-0.01796453
0.7162	-0.01916233
0.7164	-0.02027009
0.7166	-0.02106922
0.7168	-0.01764585
0.717	-0.01838078
0.7172	-0.01962353
0.7174	-0.01941538
0.7176	-0.01914093
0.7178	-0.0189714
0.718	-0.01968388
0.7182	-0.02049526
0.7184	-0.02105798
0.7186	-0.01871612
0.7188	-0.01832442
0.719	-0.01662098
0.7192	-0.01562926
0.7194	-0.01774372
0.7196	-0.01797052
0.7198	-0.01682021
0.72	-0.01669028
0.7202	-0.01500888
0.7204	-0.01259794
0.7206	-0.01309677
0.7208	-0.01121704
0.721	-0.009321487
0.7212	-0.0104759
0.7214	-0.009998623
0.7216	-0.007935367
0.7218	-0.005515621
0.722	-0.00193234
0.7222	-0.001378289
0.7224	0.000333001
0.7226	0.001296121
0.7228	-0.0003126847
0.723	0.003755789
0.7232	0.006851457
0.7234	0.007382572
0.7236	0.00904166
0.7238	0.01079564
0.724	0.01286972
0.7242	0.0130307
0.7244	0.01408596
0.7246	0.01375777
0.7248	0.01160802
0.725	0.01315543
0.7252	0.0135925
0.7254	0.01462558
0.7256	0.01691981
0.7258	0.01706888
0.726	0.01721048
0.7262	0.01890321
0.7264	0.02091839
0.7266	0.01838615
0.7268	0.01811041
0.727	0.01935087
0.7272	0.01921309
0.7274	0.01956059
0.7276	0.021103
0.7278	0.02210389
0.728	0.02026248
0.7282	0.02074232
0.7284	0.01733934
0.7286	0.01650032
0.7288	0.01871635
0.729	0.01788902
0.7292	0.01730955
0.7294	0.01683441
0.7296	0.01594917
0.7298	0.01418404
0.73	0.01431357
0.7302	0.01154116
0.7304	0.00962185
0.7306	0.01035818
0.7308	0.008472954
0.731	0.007767649
0.7312	0.008265252
0.7314	0.006868556
0.7316	0.003836816
0.7318	0.001405112
0.732	0.00117471
0.7322	-0.0003969503
0.7324	-0.0007121287
0.7326	-0.003336478
0.7328	-0.00501431
0.733	-0.005255575
0.7332	-0.006094171
0.7334	-0.005350876
0.7336	-0.00546814
0.7338	-0.006493032
0.734	-0.009237408
0.7342	-0.01138664
0.7344	-0.009497602
0.7346	-0.009187809
0.7348	-0.007397261
0.735	-0.008260876
0.7352	-0.008881245
0.7354	-0.008980542
0.7356	-0.01033734
0.7358	-0.01119
0.736	-0.01467393
0.7362	-0.01490563
0.7364	-0.01512552
0.7366	-0.01667493
0.7368	-0.01783623
0.737	-0.02080271
0.7372	-0.02020461
0.7374	-0.0204325
0.7376	-0.02027097
0.7378	-0.01891527
0.738	-0.01900616
0.7382	-0.01801112
0.7384	-0.01792966
0.7386	-0.01763978
0.7388	-0.01742889
0.739	-0.01588171
0.7392	-0.01447354
0.7394	-0.01244677
0.7396	-0.01050954
0.7398	-0.01207393
0.74	-0.01236032
0.7402	-0.01393506
0.7404	-0.01416522
0.7406	-0.01236319
0.7408	-0.01084987
0.741	-0.01066682
0.7412	-0.01089079
0.7414	-0.00807056
0.7416	-0.006968488
0.7418	-0.006878374
0.742	-0.005710555
0.7422	-0.004801832
0.7424	-0.002805498
0.7426	-0.002430316
0.7428	-0.00204784
0.743	-0.000435864
0.7432	0.00313554
0.7434	0.004297377
0.7436	0.005665685
0.7438	0.00873328
0.744	0.008729437
0.7442	0.009869862
0.7444	0.01011101
0.7446	0.01098721
0.7448	0.01189642
0.745	0.01344711
0.7452	0.01456533
0.7454	0.0152642
0.7456	0.01678959
0.7458	0.01500645
0.746	0.01604957
0.7462	0.01741438
0.7464	0.01847966
0.7466	0.01953786
0.7468	0.01906986
0.747	0.01928479
0.7472	0.01673265
0.7474	0.01682704
0.7476	0.01870038
0.7478	0.01931183
0.748	0.01956928
0.7482	0.01810586
0.7484	0.01748438
0.7486	0.01696545
0.7488	0.01725015
0.749	0.0180352
0.7492	0.01620401
0.7494	0.01667866
0.7496	0.01657898
0.7498	0.0129595
0.75	0.01185524
0.7502	0.01101265
0.7504	0.0111624
0.7506	0.009155694
0.7508	0.008719613
0.751	0.008022157
0.7512	0.004730635
0.7514	0.004875147
0.7516	0.004440937
0.7518	0.002512605
0.752	0.001011051
0.7522	-0.0008178748
0.7524	-0.002792165
0.7526	-0.004916714
0.7528	-0.006696594
0.753	-0.006443908
0.7532	-0.00678385
0.7534	-0.005851966
0.7536	-0.007427015
0.7538	-0.01014286
0.754	-0.01331207
0.7542	-0.01335593
0.7544	-0.01248805
0.7546	-0.01280796
0.7548	-0.01077824
0.755	-0.0123837
0.7552	-0.01306163
0.7554	-0.01477275
0.7556	-0.01721834
0.7558	-0.01640014
0.756	-0.01713101
0.7562	-0.01604777
0.7564	-0.01671818
0.7566	-0.01565116
0.7568	-0.01491796
0.757	-0.01707887
0.7572	-0.01633072
0.7574	-0.01689835
0.7576	-0.01805923
0.7578	-0.01820376
0.758	-0.01857386
0.7582	-0.01834848
0.7584	-0.01782762
0.7586	-0.01566595
0.7588	-0.01317459
0.759	-0.01460115
0.7592	-0.01359971
0.7594	-0.0135184
0.7596	-0.01531233
0.7598	-0.01461979
0.76	-0.01379266
0.7602	-0.01445389
0.7604	-0.0155835
0.7606	-0.01412035
0.7608	-0.01419829
0.761	-0.01322344
0.7612	-0.01120506
0.7614	-0.01111093
0.7616	-0.01064127
0.7618	-0.008866952
0.762	-0.00656474
0.7622	-0.004038634
0.7624	-0.004348067
0.7626	-0.003613683
0.7628	-0.003037478
0.763	-0.001182482
0.7632	0.001025978
0.7634	0.0007463302
0.7636	0.002462224
0.7638	0.004642203
0.764	0.008093007
0.7642	0.008125283
0.7644	0.009803553
0.7646	0.009640436
0.7648	0.01091386
0.765	0.01483371
0.7652	0.01196116
0.7654	0.01248014
0.7656	0.01408577
0.7658	0.01616675
0.766	0.01655868
0.7662	0.01718041
0.7664	0.01849621
0.7666	0.01803212
0.7668	0.0197514
0.767	0.02182072
0.7672	0.01995119
0.7674	0.01880227
0.7676	0.02011841
0.7678	0.02011959
0.768	0.02057258
0.7682	0.02192667
0.7684	0.02044253
0.7686	0.01789737
0.7688	0.01812621
0.769	0.01715579
0.7692	0.01647177
0.7694	0.01648168
0.7696	0.0167777
0.7698	0.01639772
0.77	0.01392803
0.7702	0.01235159
0.7704	0.01072134
0.7706	0.01052903
0.7708	0.01065122
0.771	0.009125883
0.7712	0.008157768
0.7714	0.007951719
0.7716	0.007542694
0.7718	0.006222329
0.772	0.00488282
0.7722	0.005716344
0.7724	0.003453784
0.7726	0.00112496
0.7728	0.0005552536
0.773	-0.00141241
0.7732	-0.005194186
0.7734	-0.0069084
0.7736	-0.007900726
0.7738	-0.008726215
0.774	-0.009742386
0.7742	-0.009719364
0.7744	-0.01144547
0.7746	-0.01241818
0.7748	-0.009672902
0.775	-0.01054568
0.7752	-0.01190097
0.7754	-0.01459266
0.7756	-0.01446492
0.7758	-0.01390083
0.776	-0.01295595
0.7762	-0.01118403
0.7764	-0.01481686
0.7766	-0.01752022
0.7768	-0.01677553
0.777	-0.01877009
0.7772	-0.01980767
0.7774	-0.01926741
0.7776	-0.01836254
0.7778	-0.02073991
0.778	-0.02099067
0.7782	-0.01758836
0.7784	-0.01823756
0.7786	-0.01819572
0.7788	-0.01622936
0.779	-0.01548292
0.7792	-0.01514148
0.7794	-0.01371532
0.7796	-0.01212282
0.7798	-0.01273936
0.78	-0.01130286
0.7802	-0.01065588
0.7804	-0.01210334
0.7806	-0.01033333
0.7808	-0.007906386
0.781	-0.007458803
0.7812	-0.008178767
0.7814	-0.009659762
0.7816	-0.009188943
0.7818	-0.007294526
0.782	-0.003140487
0.7822	-0.001440214
0.7824	-0.002477915
0.7826	0.0002448082
0.7828	0.0005665474
0.783	0.001780352
0.7832	0.004083055
0.7834	0.006133203
0.7836	0.008386988
0.7838	0.009576513
0.784	0.01082763
0.7842	0.009023503
0.7844	0.007417515
0.7846	0.008151346
0.7848	0.009606879
0.785	0.0121006
0.7852	0.01346721
0.7854	0.01429595
0.7856	0.01422441
0.7858	0.0147505
0.786	0.01706063
0.7862	0.01586264
0.7864	0.01748152
0.7866	0.01797926
0.7868	0.01847156
0.787	0.01951139
0.7872	0.01990733
0.7874	0.01932976
0.7876	0.01928071
0.7878	0.02110669
0.788	0.01874964
0.7882	0.01770097
0.7884	0.01705395
0.7886	0.0168757
0.7888	0.01595203
0.789	0.01501943
0.7892	0.01625276
0.7894	0.0149944
0.7896	0.01482698
0.7898	0.01569822
0.79	0.01298016
0.7902	0.01194039
0.7904	0.01165895
0.7906	0.01067036
0.7908	0.009039609
0.791	0.008129821
0.7912	0.008584446
0.7914	0.008297709
0.7916	0.008546312
0.7918	0.005938501
0.792	0.005535518
0.7922	0.005270912
0.7924	0.00178796
0.7926	0.0006939112
0.7928	-0.002264225
0.793	-0.004575957
0.7932	-0.008644689
0.7934	-0.01046221
0.7936	-0.01080959
0.7938	-0.01199206
0.794	-0.01120024
0.7942	-0.01290808
0.7944	-0.01456258
0.7946	-0.01587132
0.7948	-0.01638058
0.795	-0.0168975
0.7952	-0.01516732
0.7954	-0.01445596
0.7956	-0.01747
0.7958	-0.01779
0.796	-0.01817649
0.7962	-0.01796807
0.7964	-0.01905647
0.7966	-0.02123982
0.7968	-0.02169803
0.797	-0.02241519
0.7972	-0.02032804
0.7974	-0.02117897
0.7976	-0.02144496
0.7978	-0.02019833
0.798	-0.02107851
0.7982	-0.02277179
0.7984	-0.02240642
0.7986	-0.0198811
0.7988	-0.01813202
0.799	-0.01685686
0.7992	-0.01484817
0.7994	-0.01698403
0.7996	-0.01564646
0.7998	-0.01355082
0.8	-0.01327268
0.8002	-0.01205956
0.8004	-0.01112957
0.8006	-0.01232776
0.8008	-0.01171791
0.801	-0.009358894
0.8012	-0.009426114
0.8014	-0.00778445
0.8016	-0.005608844
0.8018	-0.00308796
0.802	-0.001757707
0.8022	-0.0004376821
0.8024	0.0008701712
0.8026	0.001648109
0.8028	0.004520695
0.803	0.006078225
0.8032	0.005509048
0.8034	0.006809503
0.8036	0.007510782
0.8038	0.008912584
0.804	0.009833998
0.8042	0.009530585
0.8044	0.01132621
0.8046	0.01303728
0.8048	0.01240656
0.805	0.0123892
0.8052	0.01301801
0.8054	0.0127959
0.8056	0.01411188
0.8058	0.01618489
0.806	0.01721835
0.8062	0.01851018
0.8064	0.01913205
0.8066	0.01753227
0.8068	0.01918602
0.807	0.02086615
0.8072	0.02114915
0.8074	0.02178767
0.8076	0.02067601
0.8078	0.02243675
0.808	0.02223039
0.8082	0.02184431
0.8084	0.01906673
0.8086	0.01812993
0.8088	0.01789247
0.809	0.01509589
0.8092	0.01367439
0.8094	0.01340285
0.8096	0.0140688
0.8098	0.01340042
0.81	0.01379893
0.8102	0.0110722
0.8104	0.009502403
0.8106	0.009258777
0.8108	0.008943432
0.811	0.008158511
0.8112	0.008591302
0.8114	0.008970936
0.8116	0.006597081
0.8118	0.005594009
0.812	0.002937885
0.8122	0.002191716
0.8124	0.0028652
0.8126	0.001532696
0.8128	0.001429782
0.813	-0.0006980695
0.8132	-0.004836214
0.8134	-0.007545084
0.8136	-0.007741051
0.8138	-0.007494465
0.814	-0.008898214
0.8142	-0.007151187
0.8144	-0.008848337
0.8146	-0.01163201
0.8148	-0.01403913
0.815	-0.01559706
0.8152	-0.0183993
0.8154	-0.01947572
0.8156	-0.01706125
0.8158	-0.01818968
0.816	-0.01833149
0.8162	-0.01720032
0.8164	-0.01915682
0.8166	-0.02019425
0.8168	-0.02184195
0.817	-0.0210917
0.8172	-0.02165537
0.8174	-0.01959017
0.8176	-0.01940764
0.8178	-0.02066901
0.818	-0.01988352
0.8182	-0.01930965
0.8184	-0.01646369
0.8186	-0.01489212
0.8188	-0.01534289
0.819	-0.01610956
0.8192	-0.01477522
0.8194	-0.01459945
0.8196	-0.01489026
0.8198	-0.01150648
0.82	-0.0133573
0.8202	-0.01324374
0.8204	-0.01121958
0.8206	-0.009312529
0.8208	-0.00672345
0.821	-0.005518426
0.8212	-0.006222902
0.8214	-0.008116316
0.8216	-0.007227834
0.8218	-0.004878169
0.822	-0.001508527
0.8222	-0.001642291
0.8224	-0.002377096
0.8226	-0.002530262
0.8228	0.0002924634
0.823	0.002495092
0.8232	0.004869878
0.8234	0.007345526
0.8236	0.008520483
0.8238	0.008663393
0.824	0.009866559
0.8242	0.0106761
0.8244	0.01189355
0.8246	0.01472121
0.8248	0.01369021
0.825	0.01472049
0.8252	0.01580951
0.8254	0.01561698
0.8256	0.01567223
0.8258	0.01598024
0.826	0.01756348
0.8262	0.01857664
0.8264	0.01875622
0.8266	0.0185525
0.8268	0.01962158
0.827	0.01792502
0.8272	0.01768469
0.8274	0.01796127
0.8276	0.01799946
0.8278	0.01973423
0.828	0.01987554
0.8282	0.01740025
0.8284	0.01735149
0.8286	0.01596976
0.8288	0.01530701
0.829	0.01443576
0.8292	0.01350223
0.8294	0.01210644
0.8296	0.01329636
0.8298	0.01339796
0.83	0.01343417
0.8302	0.01348912
0.8304	0.01052576
0.8306	0.009119907
0.8308	0.007924396
0.831	0.00736448
0.8312	0.006328367
0.8314	0.004974601
0.8316	0.00363417
0.8318	0.003302881
0.832	0.001180756
0.8322	0.0006195823
0.8324	-0.001167158
0.8326	-0.001419816
0.8328	-0.002852493
0.833	-0.004330075
0.8332	-0.005708912
0.8334	-0.005329508
0.8336	-0.007257743
0.8338	-0.009984164
0.834	-0.01083923
0.8342	-0.01319538
0.8344	-0.01387229
0.8346	-0.01342929
0.8348	-0.01162188
0.835	-0.01351231
0.8352	-0.01570621
0.8354	-0.01396719
0.8356	-0.01621626
0.8358	-0.01851472
0.836	-0.01921465
0.8362	-0.01957713
0.8364	-0.02070781
0.8366	-0.02086207
0.8368	-0.01913179
0.837	-0.02054868
0.8372	-0.01989594
0.8374	-0.02033062
0.8376	-0.02346365
0.8378	-0.02391821
0.838	-0.02319703
0.8382	-0.02167876
0.8384	-0.02024971
0.8386	-0.01702363
0.8388	-0.01720872
0.839	-0.01527111
0.8392	-0.01374628
0.8394	-0.01310331
0.8396	-0.01118737
0.8398	-0.010765
0.84	-0.01013638
0.8402	-0.009525875
0.8404	-0.008160233
0.8406	-0.008839664
0.8408	-0.008561586
0.841	-0.006835289
0.8412	-0.006666005
0.8414	-0.006155244
0.8416	-0.003861992
0.8418	-0.001916055
0.842	-3.513595e-5
0.8422	0.00141474
0.8424	0.002666662
0.8426	0.002230655
0.8428	0.00431242
0.843	0.005300822
0.8432	0.006365092
0.8434	0.008612281
0.8436	0.009937907
0.8438	0.01105543
0.844	0.01046855
0.8442	0.01114476
0.8444	0.01150923
0.8446	0.01024165
0.8448	0.01078485
0.845	0.01202773
0.8452	0.01357111
0.8454	0.0146408
0.8456	0.01498871
0.8458	0.01568012
0.846	0.01521753
0.8462	0.01672407
0.8464	0.01576217
0.8466	0.01692909
0.8468	0.01867791
0.847	0.01870427
0.8472	0.01950291
0.8474	0.01863622
0.8476	0.01930397
0.8478	0.02046916
0.848	0.01928823
0.8482	0.02032486
0.8484	0.0207676
0.8486	0.02066569
0.8488	0.01832746
0.849	0.01563949
0.8492	0.01387576
0.8494	0.0124616
0.8496	0.01279758
0.8498	0.01418801
0.85	0.01474199
0.8502	0.01293637
0.8504	0.01071683
0.8506	0.009302229
0.8508	0.006195581
0.851	0.005644422
0.8512	0.006047094
0.8514	0.006716641
0.8516	0.004062157
0.8518	0.003297566
0.852	0.001458474
0.8522	-0.000171345
0.8524	0.0004880684
0.8526	-0.00262659
0.8528	-0.004138832
0.853	-0.002647728
0.8532	-0.001341911
0.8534	-0.004651922
0.8536	-0.005837283
0.8538	-0.006819072
0.854	-0.01084944
0.8542	-0.01112862
0.8544	-0.01226539
0.8546	-0.01385535
0.8548	-0.01276607
0.855	-0.01476354
0.8552	-0.01723664
0.8554	-0.01851205
0.8556	-0.0178927
0.8558	-0.01809201
0.856	-0.01995963
0.8562	-0.02114665
0.8564	-0.02264675
0.8566	-0.02164962
0.8568	-0.02014337
0.857	-0.01884394
0.8572	-0.01950323
0.8574	-0.01869348
0.8576	-0.01767339
0.8578	-0.01864918
0.858	-0.01726061
0.8582	-0.01857139
0.8584	-0.01794644
0.8586	-0.0180543
0.8588	-0.01777153
0.859	-0.01851209
0.8592	-0.01683138
0.8594	-0.01367843
0.8596	-0.01430985
0.8598	-0.0146771
0.86	-0.01387338
0.8602	-0.01348274
0.8604	-0.01075531
0.8606	-0.008851153
0.8608	-0.00825753
0.861	-0.007745152
0.8612	-0.006337121
0.8614	-0.007401295
0.8616	-0.004662828
0.8618	-0.002889915
0.862	-0.003816611
0.8622	-0.001173513
0.8624	0.0004822393
0.8626	0.00183874
0.8628	0.001955908
0.863	0.004425044
0.8632	0.00729451
0.8634	0.006576979
0.8636	0.008622271
0.8638	0.009343389
0.864	0.009005795
0.8642	0.008979688
0.8644	0.01050962
0.8646	0.01105419
0.8648	0.01187385
0.865	0.01310843
0.8652	0.01476615
0.8654	0.01708619
0.8656	0.01635367
0.8658	0.01758604
0.866	0.01907634
0.8662	0.01940769
0.8664	0.02092641
0.8666	0.02215848
0.8668	0.02106195
0.867	0.02140949
0.8672	0.02112868
0.8674	0.02105463
0.8676	0.01854421
0.8678	0.0173646
0.868	0.01695259
0.8682	0.01628086
0.8684	0.01947879
0.8686	0.01870915
0.8688	0.01653729
0.869	0.01726035
0.8692	0.01684196
0.8694	0.01467766
0.8696	0.01510201
0.8698	0.01488247
0.87	0.01417144
0.8702	0.01301367
0.8704	0.01188532
0.8706	0.01046153
0.8708	0.007413806
0.871	0.008741962
0.8712	0.008606837
0.8714	0.007236019
0.8716	0.005770346
0.8718	0.005273812
0.872	0.004688791
0.8722	0.002482017
0.8724	0.0007964661
0.8726	-0.001451683
0.8728	-0.001872864
0.873	-0.003052785
0.8732	-0.005350824
0.8734	-0.006232056
0.8736	-0.007598022
0.8738	-0.008752869
0.874	-0.01057182
0.8742	-0.009846464
0.8744	-0.0114263
0.8746	-0.01118972
0.8748	-0.01013696
0.875	-0.01178708
0.8752	-0.01427321
0.8754	-0.017379
0.8756	-0.01741612
0.8758	-0.01591936
0.876	-0.01494329
0.8762	-0.01500933
0.8764	-0.01447294
0.8766	-0.01727146
0.8768	-0.01871901
0.877	-0.01925363
0.8772	-0.02032531
0.8774	-0.01941089
0.8776	-0.01813767
0.8778	-0.01673824
0.878	-0.01869471
0.8782	-0.01672376
0.8784	-0.01767574
0.8786	-0.01689177
0.8788	-0.01543591
0.879	-0.014608
0.8792	-0.01607663
0.8794	-0.01535974
0.8796	-0.0139682
0.8798	-0.01623578
0.88	-0.01202515
0.8802	-0.01173306
0.8804	-0.01055487
0.8806	-0.009643371
0.8808	-0.007871785
0.881	-0.007407868
0.8812	-0.00821806
0.8814	-0.006795903
0.8816	-0.006271845
0.8818	-0.002616576
0.882	-0.0004449549
0.8822	-0.001398815
0.8824	-0.0005780378
0.8826	0.000271065
0.8828	0.001403635
0.883	0.001217446
0.8832	0.002008828
0.8834	0.002135051
0.8836	0.003509781
0.8838	0.006428616
0.884	0.005729702
0.8842	0.006414712
0.8844	0.007587243
0.8846	0.00964655
0.8848	0.009992009
0.885	0.01033174
0.8852	0.0098527
0.8854	0.01211962
0.8856	0.01447554
0.8858	0.01403123
0.886	0.01472866
0.8862	0.01552611
0.8864	0.01711215
0.8866	0.017361
0.8868	0.01974439
0.887	0.01895692
0.8872	0.019294
0.8874	0.02041455
0.8876	0.01904798
0.8878	0.01978569
0.888	0.02084516
0.8882	0.01999002
0.8884	0.01873983
0.8886	0.02018464
0.8888	0.01889278
0.889	0.01598922
0.8892	0.01601482
0.8894	0.01449914
0.8896	0.01293791
0.8898	0.0135407
0.89	0.01386694
0.8902	0.01167286
0.8904	0.009026241
0.8906	0.01005507
0.8908	0.008992517
0.891	0.007384242
0.8912	0.008315845
0.8914	0.007410402
0.8916	0.006393668
0.8918	0.004647137
0.892	0.003953941
0.8922	0.004469205
0.8924	0.004733271
0.8926	0.002838182
0.8928	-0.0001189042
0.893	-0.0003049862
0.8932	-0.002364649
0.8934	-0.005158535
0.8936	-0.006296968
0.8938	-0.00863639
0.894	-0.009957052
0.8942	-0.009285068
0.8944	-0.01110175
0.8946	-0.01179448
0.8948	-0.01200396
0.895	-0.0138851
0.8952	-0.01548182
0.8954	-0.01412462
0.8956	-0.01397977
0.8958	-0.01537876
0.896	-0.01441919
0.8962	-0.01599767
0.8964	-0.01735499
0.8966	-0.01938127
0.8968	-0.02105608
0.897	-0.02232553
0.8972	-0.02238834
0.8974	-0.02256755
0.8976	-0.02229467
0.8978	-0.02152064
0.898	-0.02247662
0.8982	-0.01931545
0.8984	-0.01844236
0.8986	-0.01940741
0.8988	-0.01981384
0.899	-0.01850741
0.8992	-0.01816632
0.8994	-0.01667134
0.8996	-0.01455512
0.8998	-0.01489013
0.9	-0.01337917
0.9002	-0.01225326
0.9004	-0.01221302
0.9006	-0.01191484
0.9008	-0.01097285
0.901	-0.01005418
0.9012	-0.0108176
0.9014	-0.008971033
0.9016	-0.006115409
0.9018	-0.004087809
0.902	-0.001746683
0.9022	-0.001666629
0.9024	-0.002275504
0.9026	0.000347088
0.9028	0.002826208
0.903	0.003664386
0.9032	0.003490281
0.9034	0.005085543
0.9036	0.005752215
0.9038	0.007458932
0.904	0.00795274
0.9042	0.007744328
0.9044	0.009993983
0.9046	0.01113665
0.9048	0.0121555
0.905	0.01313658
0.9052	0.01504435
0.9054	0.01365795
0.9056	0.01314384
0.9058	0.01409244
0.906	0.0142623
0.9062	0.01548068
0.9064	0.01755367
0.9066	0.01996225
0.9068	0.01837788
0.907	0.01927547
0.9072	0.01713116
0.9074	0.01558341
0.9076	0.01651718
0.9078	0.01582209
0.908	0.01795336
0.9082	0.01888611
0.9084	0.01754357
0.9086	0.01760875
0.9088	0.01752792
0.909	0.01793702
0.9092	0.01592607
0.9094	0.01748987
0.9096	0.01705121
0.9098	0.01643981
0.91	0.01547281
0.9102	0.01501974
0.9104	0.01384621
0.9106	0.01153941
0.9108	0.009512572
0.911	0.006901813
0.9112	0.007519726
0.9114	0.007441582
0.9116	0.005519471
0.9118	0.005403041
0.912	0.005170894
0.9122	0.002300488
0.9124	0.0009380233
0.9126	0.002625591
0.9128	0.0001175125
0.913	-0.002573667
0.9132	-0.003145268
0.9134	-0.006731346
0.9136	-0.007774352
0.9138	-0.00781587
0.914	-0.008629619
0.9142	-0.00953249
0.9144	-0.009835512
0.9146	-0.01008085
0.9148	-0.01297942
0.915	-0.01233327
0.9152	-0.01313113
0.9154	-0.01488406
0.9156	-0.01681234
0.9158	-0.01743225
0.916	-0.01669667
0.9162	-0.01525163
0.9164	-0.01578901
0.9166	-0.0181642
0.9168	-0.01885344
0.917	-0.0197456
0.9172	-0.01863269
0.9174	-0.01652684
0.9176	-0.01594757
0.9178	-0.01682516
0.918	-0.01610062
0.9182	-0.01614218
0.9184	-0.01763738
0.9186	-0.01526933
0.9188	-0.0133104
0.919	-0.01177143
0.9192	-0.01210644
0.9194	-0.01375248
0.9196	-0.01345914
0.9198	-0.01268863
0.92	-0.01138684
0.9202	-0.0124222
0.9204	-0.01185807
0.9206	-0.013559
0.9208	-0.01236718
0.921	-0.0104724
0.9212	-0.009223135
0.9214	-0.008227145
0.9216	-0.005239511
0.9218	-0.003990001
0.922	-0.004585007
0.9222	-0.001363662
0.9224	-0.0009398266
0.9226	-0.0005584632
0.9228	0.0003456257
0.923	0.002739784
0.9232	0.004526852
0.9234	0.00659436
0.9236	0.008091548
0.9238	0.008754994
0.924	0.01005693
0.9242	0.01086829
0.9244	0.008886665
0.9246	0.007635902
0.9248	0.009617811
0.925	0.01191272
0.9252	0.01150763
0.9254	0.01286259
0.9256	0.0140347
0.9258	0.01448779
0.926	0.01729779
0.9262	0.01697273
0.9264	0.01738042
0.9266	0.01603724
0.9268	0.01728974
0.927	0.0183515
0.9272	0.01897821
0.9274	0.01842702
0.9276	0.01594291
0.9278	0.01579081
0.928	0.01628699
0.9282	0.01604782
0.9284	0.01532006
0.9286	0.01543272
0.9288	0.01581009
0.929	0.01682698
0.9292	0.01423099
0.9294	0.01260061
0.9296	0.01248015
0.9298	0.01184765
0.93	0.01136848
0.9302	0.01011025
0.9304	0.01030406
0.9306	0.008599077
0.9308	0.008402517
0.931	0.008357967
0.9312	0.008280041
0.9314	0.009842004
0.9316	0.007581764
0.9318	0.00520935
0.932	0.003910874
0.9322	0.004398284
0.9324	0.003432143
0.9326	0.003487476
0.9328	0.001516417
0.933	-0.00200608
0.9332	-0.002402698
0.9334	-0.003625869
0.9336	-0.004926399
0.9338	-0.007269127
0.934	-0.009152145
0.9342	-0.01082755
0.9344	-0.01045366
0.9346	-0.01166595
0.9348	-0.01317999
0.935	-0.01276468
0.9352	-0.01458235
0.9354	-0.01490604
0.9356	-0.01556724
0.9358	-0.01691726
0.936	-0.01733579
0.9362	-0.01647345
0.9364	-0.01812244
0.9366	-0.01877275
0.9368	-0.01952309
0.937	-0.02007564
0.9372	-0.02067331
0.9374	-0.02062519
0.9376	-0.01944262
0.9378	-0.01848994
0.938	-0.01827022
0.9382	-0.02055241
0.9384	-0.01902552
0.9386	-0.015272
0.9388	-0.01563227
0.939	-0.01481034
0.9392	-0.01305058
0.9394	-0.01340589
0.9396	-0.01445073
0.9398	-0.01056695
0.94	-0.008654156
0.9402	-0.008061768
0.9404	-0.004870763
0.9406	-0.00568004
0.9408	-0.006633483
0.941	-0.007712097
0.9412	-0.006434641
0.9414	-0.006117734
0.9416	-0.005405077
0.9418	-0.001304326
0.942	-0.001299138
0.9422	-8.389019e-5
0.9424	0.00142638
0.9426	0.002145623
0.9428	0.002987229
0.943	0.005471118
0.9432	0.008385275
0.9434	0.008733119
0.9436	0.01012524
0.9438	0.009777796
0.944	0.009507071
0.9442	0.01031721
0.9444	0.008966918
0.9446	0.007952414
0.9448	0.009022001
0.945	0.009687657
0.9452	0.01065044
0.9454	0.01326535
0.9456	0.0143609
0.9458	0.0164915
0.946	0.01464111
0.9462	0.01349073
0.9464	0.01546389
0.9466	0.01629172
0.9468	0.01732782
0.947	0.01825325
0.9472	0.01909527
0.9474	0.01722891
0.9476	0.01546987
0.9478	0.01412197
0.948	0.01330883
0.9482	0.01525018
0.9484	0.01510807
0.9486	0.01518227
0.9488	0.01515418
0.949	0.01755423
0.9492	0.01510327
0.9494	0.01375926
0.9496	0.01474395
0.9498	0.01360855
0.95	0.01268171
0.9502	0.01230059
0.9504	0.01105863
0.9506	0.01077195
0.9508	0.01215298
0.951	0.01039396
0.9512	0.009324777
0.9514	0.008510727
0.9516	0.006242065
0.9518	0.005997792
0.952	0.004270848
0.9522	0.002615695
0.9524	0.001763542
0.9526	0.002309483
0.9528	0.0002401569
0.953	-0.002910176
0.9532	-0.003145156
0.9534	-0.005086756
0.9536	-0.006971026
0.9538	-0.008376276
0.954	-0.007774542
0.9542	-0.009903196
0.9544	-0.008799022
0.9546	-0.00979339
0.9548	-0.01101203
0.955	-0.01001143
0.9552	-0.01160205
0.9554	-0.01416618
0.9556	-0.01602989
0.9558	-0.01701979
0.956	-0.01917546
0.9562	-0.01821664
0.9564	-0.01920133
0.9566	-0.02000812
0.9568	-0.01819043
0.957	-0.01963761
0.9572	-0.01928866
0.9574	-0.02022709
0.9576	-0.02100645
0.9578	-0.02039495
0.958	-0.01979875
0.9582	-0.01839617
0.9584	-0.01944236
0.9586	-0.01797924
0.9588	-0.01618107
0.959	-0.01562566
0.9592	-0.01666324
0.9594	-0.01703281
0.9596	-0.01567818
0.9598	-0.01504345
0.96	-0.01176528
0.9602	-0.0101772
0.9604	-0.01202071
0.9606	-0.009446247
0.9608	-0.008177857
0.961	-0.008026087
0.9612	-0.008165037
0.9614	-0.008675297
0.9616	-0.007183332
0.9618	-0.006778794
0.962	-0.005105461
0.9622	-0.002609078
0.9624	-0.00199818
0.9626	0.0002627405
0.9628	0.0004120128
0.963	-0.0007589817
0.9632	0.0003065527
0.9634	0.002833111
0.9636	0.005427644
0.9638	0.007458446
0.964	0.008593899
0.9642	0.01123191
0.9644	0.01228605
0.9646	0.01404313
0.9648	0.01267404
0.965	0.0122478
0.9652	0.0142425
0.9654	0.01594482
0.9656	0.01772677
0.9658	0.01855288
0.966	0.01896519
0.9662	0.02045205
0.9664	0.01966086
0.9666	0.0199067
0.9668	0.01991124
0.967	0.01683518
0.9672	0.01584474
0.9674	0.01598786
0.9676	0.0165691
0.9678	0.01764943
0.968	0.01823262
0.9682	0.01875438
0.9684	0.01532181
0.9686	0.01617528
0.9688	0.01704507
0.969	0.01611708
0.9692	0.01676558
0.9694	0.01454955
0.9696	0.01316945
0.9698	0.013019
0.97	0.01328019
0.9702	0.009686383
0.9704	0.01018875
0.9706	0.01102646
0.9708	0.009821897
0.971	0.008412021
0.9712	0.007849458
0.9714	0.008107993
0.9716	0.006981457
0.9718	0.004191439
0.972	0.003182381
0.9722	0.00401745
0.9724	0.002049707
0.9726	-0.00123233
0.9728	-0.003977978
0.973	-0.004565991
0.9732	-0.005934477
0.9734	-0.005868163
0.9736	-0.006130619
0.9738	-0.008137433
0.974	-0.008170493
0.9742	-0.008936353
0.9744	-0.009636682
0.9746	-0.01051654
0.9748	-0.01053295
0.975	-0.01089484
0.9752	-0.01073694
0.9754	-0.01287097
0.9756	-0.01727105
0.9758	-0.01693924
0.976	-0.01641708
0.9762	-0.01521345
0.9764	-0.01794679
0.9766	-0.01993834
0.9768	-0.02013763
0.977	-0.01902181
0.9772	-0.01833808
0.9774	-0.01736017
0.9776	-0.01511058
0.9778	-0.01548136
0.978	-0.0161165
0.9782	-0.01548118
0.9784	-0.01415256
0.9786	-0.01398926
0.9788	-0.01388878
0.979	-0.01550583
0.9792	-0.01724245
0.9794	-0.01607047
0.9796	-0.01600034
0.9798	-0.01584188
0.98	-0.01485251
0.9802	-0.01417107
0.9804	-0.01220921
0.9806	-0.01022479
0.9808	-0.009272241
0.981	-0.009241007
0.9812	-0.00805136
0.9814	-0.007208235
0.9816	-0.006222887
0.9818	-0.00514179
0.982	-0.003182628
0.9822	-0.002930096
0.9824	-0.00112695
0.9826	0.002374185
0.9828	0.003902797
0.983	0.004939701
0.9832	0.006539393
0.9834	0.006075384
0.9836	0.007076716
0.9838	0.008490543
0.984	0.008670698
0.9842	0.00982428
0.9844	0.012099
0.9846	0.01185204
0.9848	0.01196551
0.985	0.01417467
0.9852	0.01478302
0.9854	0.01542102
0.9856	0.016468
0.9858	0.0191393
0.986	0.02009463
0.9862	0.01911377
0.9864	0.01814551
0.9866	0.0182733
0.9868	0.01938705
0.987	0.01935733
0.9872	0.01912092
0.9874	0.01856432
0.9876	0.01921713
0.9878	0.01932321
0.988	0.02023094
0.9882	0.02081142
0.9884	0.02213001
0.9886	0.02034346
0.9888	0.01814505
0.989	0.0174027
0.9892	0.01751002
0.9894	0.01758803
0.9896	0.01775496
0.9898	0.01797185
0.99	0.01470181
0.9902	0.01366208
0.9904	0.01186534
0.9906	0.01018513
0.9908	0.009398758
0.991	0.008307001
0.9912	0.006089761
0.9914	0.006777399
0.9916	0.005905363
0.9918	0.001944466
0.992	0.002131124
0.9922	-0.001060458
0.9924	-0.002945614
0.9926	-0.005138022
0.9928	-0.006526982
0.993	-0.007574792
0.9932	-0.006818257
0.9934	-0.007459518
0.9936	-0.007390839
0.9938	-0.008276854
0.994	-0.009430858
0.9942	-0.01089543
0.9944	-0.01159913
0.9946	-0.01299838
0.9948	-0.01276117
0.995	-0.01127572
0.9952	-0.01249414
0.9954	-0.01207497
0.9956	-0.01373095
0.9958	-0.01452847
0.996	-0.01602382
0.9962	-0.01719698
0.9964	-0.01875195
0.9966	-0.01915297
0.9968	-0.01641815
0.997	-0.01672494
0.9972	-0.01777144
0.9974	-0.01879784
0.9976	-0.01845416
0.9978	-0.01926257
0.998	-0.01915529
0.9982	-0.01871301
0.9984	-0.01747921
0.9986	-0.01642601
0.9988	-0.01655277
0.999	-0.01550229
0.9992	-0.01507986
0.9994	-0.01553185
0.9996	-0.01489775
0.9998	-0.01493882
1	-0.01322518
1.0002	-0.01195759
1.0004	-0.009931439
1.0006	-0.01006045
1.0008	-0.008742569
1.001	-0.009121617
1.0012	-0.009945674
1.0014	-0.007957783
1.0016	-0.006813807
1.0018	-0.005753518
1.002	-0.003472802
1.0022	-0.003551612
1.0024	-0.002207082
1.0026	-0.0004689036
1.0028	-0.001145388
1.003	-0.0008956185
1.0032	0.001366903
1.0034	0.002732263
1.0036	0.005339532
1.0038	0.00715506
1.004	0.007594421
1.0042	0.01029686
1.0044	0.01061732
1.0046	0.009227145
1.0048	0.008935245
1.005	0.01090239
1.0052	0.01387841
1.0054	0.01520748
1.0056	0.01376681
1.0058	0.01524265
1.006	0.01562249
1.0062	0.01449696
1.0064	0.01589778
1.0066	0.01878964
1.0068	0.02025341
1.007	0.02009036
1.0072	0.02216262
1.0074	0.02096917
1.0076	0.02018851
1.0078	0.01999644
1.008	0.01801344
1.0082	0.01746859
1.0084	0.01723539
1.0086	0.01672596
1.0088	0.01568158
1.009	0.01541091
1.0092	0.01487378
1.0094	0.01644828
1.0096	0.01570099
1.0098	0.01464855
1.01	0.01456337
1.0102	0.01421722
1.0104	0.01206297
1.0106	0.01077282
1.0108	0.01084539
1.011	0.008118153
1.0112	0.009979403
1.0114	0.01072892
1.0116	0.009654915
1.0118	0.007797019
1.012	0.006717256
1.0122	0.005561901
1.0124	0.004544901
1.0126	0.004308143
1.0128	0.0008667225
1.013	-0.002236306
1.0132	-0.004771007
1.0134	-0.005763082
1.0136	-0.007701129
1.0138	-0.008271911
1.014	-0.009669992
1.0142	-0.0106513
1.0144	-0.01090144
1.0146	-0.01294215
1.0148	-0.0124423
1.015	-0.01279858
1.0152	-0.01392546
1.0154	-0.01535874
1.0156	-0.01575453
1.0158	-0.01583021
1.016	-0.01460917
1.0162	-0.01432582
1.0164	-0.01794405
1.0166	-0.01755751
1.0168	-0.01842151
1.017	-0.01877516
1.0172	-0.01921657
1.0174	-0.01794908
1.0176	-0.01595291
1.0178	-0.01551307
1.018	-0.0161244
1.0182	-0.01842032
1.0184	-0.0188652
1.0186	-0.01959836
1.0188	-0.02006841
1.019	-0.01913855
1.0192	-0.01848676
1.0194	-0.01830181
1.0196	-0.01825136
1.0198	-0.01506243
1.02	-0.01469523
1.0202	-0.01374616
1.0204	-0.01357337
1.0206	-0.01075136
1.0208	-0.00924902
1.021	-0.009722107
1.0212	-0.01050261
1.0214	-0.01011388
1.0216	-0.009463328
1.0218	-0.00957897
1.022	-0.006336169
1.0222	-0.005219355
1.0224	-0.002346329
1.0226	0.0006253955
1.0228	0.003735117
1.023	0.00520545
1.0232	0.006769398
1.0234	0.008669863
1.0236	0.008095534
1.0238	0.01018423
1.024	0.01067961
1.0242	0.00896916
1.0244	0.0081294
1.0246	0.008584359
1.0248	0.008951523
1.025	0.0113005
1.0252	0.01332683
1.0254	0.01321574
1.0256	0.0142139
1.0258	0.01365695
1.026	0.01376321
1.0262	0.01307356
1.0264	0.0141343
1.0266	0.01568411
1.0268	0.01744688
1.027	0.01699044
1.0272	0.01775468
1.0274	0.01767788
1.0276	0.0170768
1.0278	0.01658105
1.028	0.01760086
1.0282	0.01541915
1.0284	0.01475791
1.0286	0.01629214
1.0288	0.01378919
1.029	0.01469407
1.0292	0.01332128
1.0294	0.01318744
1.0296	0.01365973
1.0298	0.01391257
1.03	0.01372178
1.0302	0.01407009
1.0304	0.0122984
1.0306	0.009231367
1.0308	0.008312428
1.031	0.008463237
1.0312	0.007299998
1.0314	0.004987587
1.0316	0.004514244
1.0318	0.003883885
1.032	0.005254851
1.0322	0.003276306
1.0324	-0.0001065392
1.0326	-0.0006672544
1.0328	-0.003927111
1.033	-0.005277731
1.0332	-0.00699702
1.0334	-0.00740644
1.0336	-0.008704539
1.0338	-0.0088019
1.034	-0.00835841
1.0342	-0.008796576
1.0344	-0.009272588
1.0346	-0.01323546
1.0348	-0.01626726
1.035	-0.01632269
1.0352	-0.01494384
1.0354	-0.01432826
1.0356	-0.013145
1.0358	-0.01352402
1.036	-0.01633304
1.0362	-0.01607322
1.0364	-0.01751119
1.0366	-0.01893326
1.0368	-0.01904503
1.037	-0.0191084
1.0372	-0.01967572
1.0374	-0.01887448
1.0376	-0.01505056
1.0378	-0.01723005
1.038	-0.01686983
1.0382	-0.01483269
1.0384	-0.01594792
1.0386	-0.01497759
1.0388	-0.01360252
1.039	-0.01289053
1.0392	-0.01303018
1.0394	-0.01231283
1.0396	-0.01151712
1.0398	-0.01240528
1.04	-0.00963017
1.0402	-0.01024645
1.0404	-0.01113153
1.0406	-0.01045123
1.0408	-0.008461266
1.041	-0.00616104
1.0412	-0.004414626
1.0414	-0.004736662
1.0416	-0.004027634
1.0418	-0.001319983
1.042	-0.0008579427
1.0422	0.0009653198
1.0424	0.003563891
1.0426	0.005756968
1.0428	0.006139673
1.043	0.005703872
1.0432	0.009099299
1.0434	0.008692239
1.0436	0.01074975
1.0438	0.01090709
1.044	0.01001591
1.0442	0.01047539
1.0444	0.01055115
1.0446	0.01090724
1.0448	0.01134229
1.045	0.01377718
1.0452	0.01282466
1.0454	0.01371114
1.0456	0.01743984
1.0458	0.01834349
1.046	0.01954602
1.0462	0.01805395
1.0464	0.01714638
1.0466	0.01749563
1.0468	0.01987215
1.047	0.01827246
1.0472	0.01715407
1.0474	0.01766793
1.0476	0.01680116
1.0478	0.01591172
1.048	0.01477397
1.0482	0.0133904
1.0484	0.01166177
1.0486	0.01125226
1.0488	0.01044685
1.049	0.01082112
1.0492	0.01082129
1.0494	0.008701897
1.0496	0.007965337
1.0498	0.008646243
1.05	0.007507601
1.0502	0.006868817
1.0504	0.007035058
1.0506	0.005254982
1.0508	0.005231916
1.051	0.005311607
1.0512	0.00545179
1.0514	0.006125009
1.0516	0.005207947
1.0518	0.002063128
1.052	0.001937332
1.0522	0.001544332
1.0524	0.001051631
1.0526	0.0001177256
1.0528	-0.002028913
1.053	-0.002933276
1.0532	-0.005315011
1.0534	-0.007686118
1.0536	-0.008711617
1.0538	-0.006975844
1.054	-0.008808338
1.0542	-0.00821308
1.0544	-0.007909605
1.0546	-0.01056603
1.0548	-0.01240021
1.055	-0.01304081
1.0552	-0.01467812
1.0554	-0.01493901
1.0556	-0.01404874
1.0558	-0.01616343
1.056	-0.01536587
1.0562	-0.01603592
1.0564	-0.01753454
1.0566	-0.01926143
1.0568	-0.01965378
1.057	-0.01848704
1.0572	-0.01684279
1.0574	-0.01476479
1.0576	-0.01591809
1.0578	-0.01560613
1.058	-0.01737431
1.0582	-0.01640465
1.0584	-0.01632991
1.0586	-0.01528502
1.0588	-0.01539381
1.059	-0.0143589
1.0592	-0.01499245
1.0594	-0.01463055
1.0596	-0.01161397
1.0598	-0.01195732
1.06	-0.01221775
1.0602	-0.01250101
1.0604	-0.01094455
1.0606	-0.008821405
1.0608	-0.007889533
1.061	-0.006960896
1.0612	-0.00678461
1.0614	-0.005671165
1.0616	-0.003888923
1.0618	-0.001456267
1.062	0.0002672522
1.0622	0.001162074
1.0624	0.001213716
1.0626	0.002415036
1.0628	0.003892558
1.063	0.004292966
1.0632	0.006059329
1.0634	0.007310164
1.0636	0.008067377
1.0638	0.007952003
1.064	0.007695721
1.0642	0.007254217
1.0644	0.009270686
1.0646	0.009902308
1.0648	0.008052682
1.065	0.009910592
1.0652	0.01163268
1.0654	0.01224323
1.0656	0.01478769
1.0658	0.01463211
1.066	0.01477548
1.0662	0.01595725
1.0664	0.01628111
1.0666	0.01682473
1.0668	0.01850773
1.067	0.02032437
1.0672	0.02032423
1.0674	0.02026459
1.0676	0.02020758
1.0678	0.01998624
1.068	0.01935097
1.0682	0.01973783
1.0684	0.01942574
1.0686	0.01647909
1.0688	0.01629511
1.069	0.01658649
1.0692	0.01561623
1.0694	0.0160275
1.0696	0.01498799
1.0698	0.01413736
1.07	0.01279453
1.0702	0.01289207
1.0704	0.01207806
1.0706	0.009809421
1.0708	0.006899563
1.071	0.005185764
1.0712	0.00482724
1.0714	0.005060726
1.0716	0.006332598
1.0718	0.004428018
1.072	0.002108672
1.0722	0.002461359
1.0724	-0.00130469
1.0726	-0.004308794
1.0728	-0.003574956
1.073	-0.005021769
1.0732	-0.008358942
1.0734	-0.01030284
1.0736	-0.01112254
1.0738	-0.01023694
1.074	-0.00869948
1.0742	-0.009347877
1.0744	-0.01203559
1.0746	-0.0124329
1.0748	-0.01106692
1.075	-0.01359932
1.0752	-0.01546432
1.0754	-0.01700477
1.0756	-0.01839034
1.0758	-0.01834329
1.076	-0.01720763
1.0762	-0.01616768
1.0764	-0.01661621
1.0766	-0.01599858
1.0768	-0.01659209
1.077	-0.01863813
1.0772	-0.01938418
1.0774	-0.01936815
1.0776	-0.01893347
1.0778	-0.01864383
1.078	-0.01878958
1.0782	-0.01705876
1.0784	-0.01813288
1.0786	-0.01745268
1.0788	-0.01406541
1.079	-0.01371009
1.0792	-0.01434407
1.0794	-0.01484944
1.0796	-0.01339272
1.0798	-0.01262238
1.08	-0.0115263
1.0802	-0.00894006
1.0804	-0.007429573
1.0806	-0.007815692
1.0808	-0.005522631
1.081	-0.006533718
1.0812	-0.008034524
1.0814	-0.007062688
1.0816	-0.005705647
1.0818	-0.002872519
1.082	-0.001621907
1.0822	-0.001096671
1.0824	-0.00068607
1.0826	-0.0008504279
1.0828	0.001677969
1.083	0.002288596
1.0832	0.0043292
1.0834	0.005555414
1.0836	0.005916175
1.0838	0.005801136
1.084	0.007369149
1.0842	0.008400371
1.0844	0.008854341
1.0846	0.01047171
1.0848	0.007966978
1.085	0.006333043
1.0852	0.008037219
1.0854	0.01055415
1.0856	0.0117037
1.0858	0.01235138
1.086	0.01419483
1.0862	0.01304955
1.0864	0.01325435
1.0866	0.01562514
1.0868	0.01621028
1.087	0.01720466
1.0872	0.01880725
1.0874	0.01973327
1.0876	0.01984892
1.0878	0.02199002
1.088	0.02146716
1.0882	0.02082949
1.0884	0.02200295
1.0886	0.01906415
1.0888	0.01771057
1.089	0.01800505
1.0892	0.01735909
1.0894	0.01695478
1.0896	0.01459846
1.0898	0.01582106
1.09	0.01648516
1.0902	0.01410946
1.0904	0.0129493
1.0906	0.01326603
1.0908	0.009826436
1.091	0.008520823
1.0912	0.007977719
1.0914	0.007360088
1.0916	0.006048141
1.0918	0.004405364
1.092	0.003481622
1.0922	3.829119e-5
1.0924	-0.0004241534
1.0926	-0.001514857
1.0928	-0.002918124
1.093	-0.003510718
1.0932	-0.003066499
1.0934	-0.005035032
1.0936	-0.00659884
1.0938	-0.0084314
1.094	-0.01110817
1.0942	-0.01190883
1.0944	-0.01236874
1.0946	-0.01193429
1.0948	-0.01313999
1.095	-0.01346011
1.0952	-0.01539996
1.0954	-0.01620885
1.0956	-0.01382895
1.0958	-0.01538614
1.096	-0.01721645
1.0962	-0.01911629
1.0964	-0.02059468
1.0966	-0.02007953
1.0968	-0.01926877
1.097	-0.01983641
1.0972	-0.01948893
1.0974	-0.01898015
1.0976	-0.01985852
1.0978	-0.01818548
1.098	-0.02092428
1.0982	-0.02201185
1.0984	-0.02112802
1.0986	-0.01928335
1.0988	-0.01831528
1.099	-0.01537015
1.0992	-0.01216665
1.0994	-0.01455011
1.0996	-0.01422191
1.0998	-0.01326821
1.1	-0.01363845
1.1002	-0.01399211
1.1004	-0.01207651
1.1006	-0.01029162
1.1008	-0.007740942
1.101	-0.005999826
1.1012	-0.005765094
1.1014	-0.006554996
1.1016	-0.00398497
1.1018	-0.002001717
1.102	-0.002654596
1.1022	-0.001168766
1.1024	-0.0007939209
1.1026	0.001733444
1.1028	0.003216173
1.103	0.003165292
1.1032	0.005824806
1.1034	0.008072133
1.1036	0.007681622
1.1038	0.008566871
1.104	0.008315346
1.1042	0.009179037
1.1044	0.01148609
1.1046	0.01140921
1.1048	0.01138347
1.105	0.01303176
1.1052	0.01372105
1.1054	0.0115139
1.1056	0.01367438
1.1058	0.01478396
1.106	0.01449541
1.1062	0.01647291
1.1064	0.01830868
1.1066	0.02052788
1.1068	0.02074173
1.107	0.01963582
1.1072	0.02081722
1.1074	0.02156814
1.1076	0.02054506
1.1078	0.02282962
1.108	0.02298415
1.1082	0.02081504
1.1084	0.02072561
1.1086	0.02045229
1.1088	0.02006742
1.109	0.0201364
1.1092	0.01883511
1.1094	0.01669743
1.1096	0.01660908
1.1098	0.01387439
1.11	0.01221493
1.1102	0.01307449
1.1104	0.01170916
1.1106	0.01104962
1.1108	0.01090068
1.111	0.009099851
1.1112	0.005928678
1.1114	0.004857722
1.1116	0.004804946
1.1118	0.005585182
1.112	0.002892045
1.1122	-0.001308554
1.1124	-0.0002497447
1.1126	0.0001722975
1.1128	-0.002460407
1.113	-0.003374421
1.1132	-0.00408909
1.1134	-0.005722241
1.1136	-0.006327953
1.1138	-0.008080953
1.114	-0.008768184
1.1142	-0.009601597
1.1144	-0.0111695
1.1146	-0.01205846
1.1148	-0.0125991
1.115	-0.01255674
1.1152	-0.01346343
1.1154	-0.0143466
1.1156	-0.01563912
1.1158	-0.01663378
1.116	-0.01521891
1.1162	-0.01482473
1.1164	-0.01799601
1.1166	-0.01687766
1.1168	-0.01623815
1.117	-0.01835851
1.1172	-0.02027902
1.1174	-0.01925934
1.1176	-0.0167621
1.1178	-0.01716904
1.118	-0.01715636
1.1182	-0.0156809
1.1184	-0.01735237
1.1186	-0.01587172
1.1188	-0.01535439
1.119	-0.01691404
1.1192	-0.01663574
1.1194	-0.01586998
1.1196	-0.01506961
1.1198	-0.01395152
1.12	-0.01323882
1.1202	-0.01246459
1.1204	-0.009345629
1.1206	-0.007911064
1.1208	-0.008104384
1.121	-0.006623699
1.1212	-0.009288127
1.1214	-0.01132759
1.1216	-0.01031061
1.1218	-0.008742072
1.122	-0.005509985
1.1222	-0.001988021
1.1224	0.001239339
1.1226	0.001592383
1.1228	0.0001373869
1.123	0.001427421
1.1232	0.003008637
1.1234	0.00429562
1.1236	0.005059472
1.1238	0.005591116
1.124	0.007322782
1.1242	0.007802425
1.1244	0.009019949
1.1246	0.01127195
1.1248	0.008876286
1.125	0.01059778
1.1252	0.01398787
1.1254	0.01297588
1.1256	0.01232214
1.1258	0.01326584
1.126	0.01559443
1.1262	0.01838042
1.1264	0.01925335
1.1266	0.02155574
1.1268	0.02119426
1.127	0.01853799
1.1272	0.02139098
1.1274	0.02194408
1.1276	0.02117347
1.1278	0.02103591
1.128	0.02015718
1.1282	0.01855711
1.1284	0.01906894
1.1286	0.01729844
1.1288	0.01562928
1.129	0.01279218
1.1292	0.01000988
1.1294	0.01023746
1.1296	0.01087988
1.1298	0.01241481
1.13	0.01253193
1.1302	0.01173975
1.1304	0.01163892
1.1306	0.01071619
1.1308	0.01028352
1.131	0.01015038
1.1312	0.00647449
1.1314	0.005112552
1.1316	0.004844079
1.1318	0.003393847
1.132	0.002702056
1.1322	0.002845011
1.1324	0.002928467
1.1326	0.001895893
1.1328	0.0006957625
1.133	0.001269105
1.1332	-0.0005882496
1.1334	-0.003713005
1.1336	-0.005068146
1.1338	-0.006519217
1.134	-0.007525518
1.1342	-0.007929591
1.1344	-0.009017372
1.1346	-0.01045686
1.1348	-0.01150041
1.135	-0.01189589
1.1352	-0.01244329
1.1354	-0.01456302
1.1356	-0.01549352
1.1358	-0.01708407
1.136	-0.01643959
1.1362	-0.01479517
1.1364	-0.01606529
1.1366	-0.01983608
1.1368	-0.02234764
1.137	-0.02119975
1.1372	-0.02271732
1.1374	-0.02364195
1.1376	-0.02206923
1.1378	-0.02191516
1.138	-0.02120416
1.1382	-0.02027944
1.1384	-0.01907281
1.1386	-0.01822339
1.1388	-0.01787631
1.139	-0.0163126
1.1392	-0.017767
1.1394	-0.01642011
1.1396	-0.01645113
1.1398	-0.01914773
1.14	-0.01760527
1.1402	-0.01606741
1.1404	-0.01356628
1.1406	-0.01244954
1.1408	-0.0120847
1.141	-0.01055114
1.1412	-0.01310806
1.1414	-0.01217591
1.1416	-0.008712107
1.1418	-0.008018913
1.142	-0.006340243
1.1422	-0.003553006
1.1424	-0.001184863
1.1426	0.001235118
1.1428	0.002086469
1.143	0.003013168
1.1432	0.003884076
1.1434	0.003100323
1.1436	0.005996859
1.1438	0.008077521
1.144	0.008309213
1.1442	0.01029235
1.1444	0.009513152
1.1446	0.01064695
1.1448	0.01291026
1.145	0.01454852
1.1452	0.01603807
1.1454	0.0159754
1.1456	0.01409192
1.1458	0.01600152
1.146	0.01766154
1.1462	0.01664186
1.1464	0.01911006
1.1466	0.01967694
1.1468	0.02029965
1.147	0.02029488
1.1472	0.01943492
1.1474	0.02067178
1.1476	0.02031752
1.1478	0.01969876
1.148	0.02108463
1.1482	0.01945174
1.1484	0.01871379
1.1486	0.01906712
1.1488	0.01836132
1.149	0.0176994
1.1492	0.01866752
1.1494	0.01703854
1.1496	0.01428926
1.1498	0.01485612
1.15	0.01400406
1.1502	0.01437065
1.1504	0.01378297
1.1506	0.01205594
1.1508	0.01066394
1.151	0.01028023
1.1512	0.0123947
1.1514	0.01091977
1.1516	0.00839733
1.1518	0.006324169
1.152	0.004644357
1.1522	0.003452937
1.1524	0.001525758
1.1526	-0.0005278833
1.1528	-0.003150973
1.153	-0.003693835
1.1532	-0.003186221
1.1534	-0.004771707
1.1536	-0.004378708
1.1538	-0.005410977
1.154	-0.008151293
1.1542	-0.009311414
1.1544	-0.01012038
1.1546	-0.01095387
1.1548	-0.01191466
1.155	-0.01328087
1.1552	-0.01303906
1.1554	-0.01514964
1.1556	-0.01859219
1.1558	-0.01819457
1.156	-0.01807778
1.1562	-0.01768323
1.1564	-0.01636114
1.1566	-0.0165968
1.1568	-0.01829371
1.157	-0.01818839
1.1572	-0.01640399
1.1574	-0.01782644
1.1576	-0.0180638
1.1578	-0.01823052
1.158	-0.01976011
1.1582	-0.02019753
1.1584	-0.01899719
1.1586	-0.01772771
1.1588	-0.01513123
1.159	-0.01414676
1.1592	-0.01133638
1.1594	-0.01034314
1.1596	-0.01121287
1.1598	-0.009743541
1.16	-0.009177393
1.1602	-0.009701184
1.1604	-0.01038811
1.1606	-0.01095908
1.1608	-0.01097014
1.161	-0.009857532
1.1612	-0.008138572
1.1614	-0.005658206
1.1616	-0.003014841
1.1618	-0.003109356
1.162	-0.002850236
1.1622	-0.001335933
1.1624	-0.001622112
1.1626	-0.001176355
1.1628	-0.001090369
1.163	0.0006964625
1.1632	0.002823669
1.1634	0.003366106
1.1636	0.004092258
1.1638	0.007192509
1.164	0.009431623
1.1642	0.009559302
1.1644	0.009752884
1.1646	0.009983913
1.1648	0.01021545
1.165	0.01070636
1.1652	0.0104754
1.1654	0.01218935
1.1656	0.01373923
1.1658	0.01520304
1.166	0.01898685
1.1662	0.01809295
1.1664	0.01801882
1.1666	0.01984549
1.1668	0.0195084
1.167	0.0197585
1.1672	0.01837815
1.1674	0.0186603
1.1676	0.01993464
1.1678	0.01965535
1.168	0.02198249
1.1682	0.02049418
1.1684	0.01685039
1.1686	0.01711233
1.1688	0.01611831
1.169	0.01530066
1.1692	0.01603798
1.1694	0.01520533
1.1696	0.014908
1.1698	0.01494127
1.17	0.01399555
1.1702	0.01076572
1.1704	0.008971862
1.1706	0.009432926
1.1708	0.007606264
1.171	0.005585789
1.1712	0.005252119
1.1714	0.00508925
1.1716	0.002708097
1.1718	0.001612105
1.172	0.001073519
1.1722	0.0004512733
1.1724	0.0008921666
1.1726	0.001712669
1.1728	-0.001062077
1.173	-0.004015877
1.1732	-0.005165305
1.1734	-0.005621043
1.1736	-0.006029181
1.1738	-0.008013573
1.174	-0.01011804
1.1742	-0.009048563
1.1744	-0.009153071
1.1746	-0.0094821
1.1748	-0.01129019
1.175	-0.0129705
1.1752	-0.01493913
1.1754	-0.01594768
1.1756	-0.016377
1.1758	-0.01682722
1.176	-0.01678523
1.1762	-0.01490968
1.1764	-0.01635026
1.1766	-0.01881892
1.1768	-0.01950403
1.177	-0.01931381
1.1772	-0.01764915
1.1774	-0.0180944
1.1776	-0.01828179
1.1778	-0.01832712
1.178	-0.01917152
1.1782	-0.01768748
1.1784	-0.01833879
1.1786	-0.01978496
1.1788	-0.01928684
1.179	-0.02013662
1.1792	-0.01992777
1.1794	-0.01844209
1.1796	-0.01699565
1.1798	-0.01678197
1.18	-0.01528152
1.1802	-0.01178552
1.1804	-0.01089636
1.1806	-0.008650273
1.1808	-0.006965623
1.181	-0.008295168
1.1812	-0.007425172
1.1814	-0.009050154
1.1816	-0.008563119
1.1818	-0.005429524
1.182	-0.002097858
1.1822	-0.0006153448
1.1824	-0.001641331
1.1826	0.001817813
1.1828	0.002472145
1.183	0.002489473
1.1832	0.004821867
1.1834	0.006134845
1.1836	0.008535175
1.1838	0.009737168
1.184	0.01038539
1.1842	0.01134153
1.1844	0.01126832
1.1846	0.0122719
1.1848	0.01248819
1.185	0.01352028
1.1852	0.01512434
1.1854	0.0160506
1.1856	0.01512535
1.1858	0.01539706
1.186	0.01729313
1.1862	0.01647009
1.1864	0.0170661
1.1866	0.01959189
1.1868	0.0186058
1.187	0.01876186
1.1872	0.01922696
1.1874	0.01829844
1.1876	0.01679611
1.1878	0.01622781
1.188	0.019495
1.1882	0.02151086
1.1884	0.01969661
1.1886	0.01965739
1.1888	0.01637458
1.189	0.01404482
1.1892	0.01514173
1.1894	0.01527241
1.1896	0.01586813
1.1898	0.0153406
1.19	0.01484172
1.1902	0.01277134
1.1904	0.01041775
1.1906	0.009592687
1.1908	0.008609966
1.191	0.009054945
1.1912	0.008548929
1.1914	0.00773262
1.1916	0.005693491
1.1918	0.004094193
1.192	0.003916662
1.1922	0.002164398
1.1924	0.001623123
1.1926	-0.0006754575
1.1928	-0.002393851
1.193	-0.003217594
1.1932	-0.004393961
1.1934	-0.005046268
1.1936	-0.006862237
1.1938	-0.005668513
1.194	-0.00629604
1.1942	-0.00811674
1.1944	-0.008823027
1.1946	-0.009814946
1.1948	-0.009180652
1.195	-0.009899856
1.1952	-0.01082326
1.1954	-0.01262304
1.1956	-0.01658769
1.1958	-0.01648998
1.196	-0.01809437
1.1962	-0.0200866
1.1964	-0.0217796
1.1966	-0.02334005
1.1968	-0.02241575
1.197	-0.02258003
1.1972	-0.02073159
1.1974	-0.01969491
1.1976	-0.01833819
1.1978	-0.01920236
1.198	-0.02076707
1.1982	-0.02005445
1.1984	-0.02112861
1.1986	-0.02102605
1.1988	-0.01994572
1.199	-0.02023579
1.1992	-0.01732022
1.1994	-0.01664186
1.1996	-0.01486999
1.1998	-0.01404442
1.2	-0.01343344
1.2002	-0.01056464
1.2004	-0.01130852
1.2006	-0.01208169
1.2008	-0.01051558
1.201	-0.008800405
1.2012	-0.005938527
1.2014	-0.005170457
1.2016	-0.00432299
1.2018	-0.004464513
1.202	-0.002681779
1.2022	3.859977e-5
1.2024	-0.000529375
1.2026	0.000362348
1.2028	0.0007892706
1.203	0.00323752
1.2032	0.003639884
1.2034	0.004985213
1.2036	0.006078549
1.2038	0.006643863
1.204	0.009123356
1.2042	0.009796117
1.2044	0.01110954
1.2046	0.01160794
1.2048	0.0110033
1.205	0.01128634
1.2052	0.0120885
1.2054	0.01493965
1.2056	0.014586
1.2058	0.01361611
1.206	0.012955
1.2062	0.01279799
1.2064	0.01518705
1.2066	0.01675239
1.2068	0.01703406
1.207	0.01720364
1.2072	0.01830758
1.2074	0.01851301
1.2076	0.01547907
1.2078	0.0173459
1.208	0.01693135
1.2082	0.01466507
1.2084	0.01508574
1.2086	0.01422699
1.2088	0.01483905
1.209	0.01393897
1.2092	0.01525756
1.2094	0.01382552
1.2096	0.01352024
1.2098	0.01504767
1.21	0.01324969
1.2102	0.01239958
1.2104	0.01072494
1.2106	0.0108233
1.2108	0.009450933
1.211	0.008815715
1.2112	0.007884681
1.2114	0.00612099
1.2116	0.006640268
1.2118	0.00363078
1.212	0.001506991
1.2122	0.0005571156
1.2124	-0.0006637832
1.2126	0.001109303
1.2128	0.0007648802
1.213	-0.001348687
1.2132	-0.005713806
1.2134	-0.009098256
1.2136	-0.009064864
1.2138	-0.01045247
1.214	-0.009720688
1.2142	-0.009803512
1.2144	-0.009074815
1.2146	-0.008770123
1.2148	-0.00793587
1.215	-0.008607206
1.2152	-0.008996562
1.2154	-0.01011127
1.2156	-0.01308503
1.2158	-0.01422006
1.216	-0.01528015
1.2162	-0.01532906
1.2164	-0.01416765
1.2166	-0.01103301
1.2168	-0.01400767
1.217	-0.01614898
1.2172	-0.01552726
1.2174	-0.01773848
1.2176	-0.01740235
1.2178	-0.01771317
1.218	-0.01814784
1.2182	-0.01822696
1.2184	-0.01647283
1.2186	-0.01342269
1.2188	-0.01348792
1.219	-0.0125685
1.2192	-0.00998328
1.2194	-0.01180913
1.2196	-0.01492756
1.2198	-0.01462775
1.22	-0.01237259
1.2202	-0.01136089
1.2204	-0.01020615
1.2206	-0.009623859
1.2208	-0.01036015
1.221	-0.007270701
1.2212	-0.005316772
1.2214	-0.005142917
1.2216	-0.004428433
1.2218	-0.003163324
1.222	-0.00232879
1.2222	-0.0002108643
1.2224	0.002093765
1.2226	0.001394696
1.2228	0.001968891
1.223	0.004017297
1.2232	0.003760357
1.2234	0.004556709
1.2236	0.007027638
1.2238	0.008651677
1.224	0.008910783
1.2242	0.009428554
1.2244	0.01025517
1.2246	0.009707861
1.2248	0.01130892
1.225	0.01140912
1.2252	0.01344032
1.2254	0.01626147
1.2256	0.01719407
1.2258	0.01763889
1.226	0.01880923
1.2262	0.01978669
1.2264	0.01775005
1.2266	0.01834194
1.2268	0.01990281
1.227	0.01884851
1.2272	0.0187356
1.2274	0.01783267
1.2276	0.01876222
1.2278	0.01929142
1.228	0.01859355
1.2282	0.02028683
1.2284	0.01917534
1.2286	0.01797312
1.2288	0.01839308
1.229	0.01652943
1.2292	0.01590618
1.2294	0.01551063
1.2296	0.01424872
1.2298	0.01319389
1.23	0.01259664
1.2302	0.01299297
1.2304	0.009705869
1.2306	0.009810128
1.2308	0.009951753
1.231	0.00804391
1.2312	0.008087845
1.2314	0.00681401
1.2316	0.005730995
1.2318	0.006488512
1.232	0.006538082
1.2322	0.003045524
1.2324	0.002432956
1.2326	0.002068199
1.2328	-0.001049823
1.233	-0.001570048
1.2332	-0.001932943
1.2334	-0.001891173
1.2336	-0.00326168
1.2338	-0.004553308
1.234	-0.005356113
1.2342	-0.008684624
1.2344	-0.009240572
1.2346	-0.009999721
1.2348	-0.01006885
1.235	-0.01016818
1.2352	-0.009187233
1.2354	-0.008866754
1.2356	-0.01159326
1.2358	-0.01321581
1.236	-0.01463491
1.2362	-0.01324954
1.2364	-0.01328899
1.2366	-0.01545821
1.2368	-0.01566085
1.237	-0.01633305
1.2372	-0.01697949
1.2374	-0.01855356
1.2376	-0.0181186
1.2378	-0.01920154
1.238	-0.02052984
1.2382	-0.02060681
1.2384	-0.02103985
1.2386	-0.02109995
1.2388	-0.02122976
1.239	-0.02049482
1.2392	-0.0210233
1.2394	-0.02100396
1.2396	-0.01923167
1.2398	-0.01950105
1.24	-0.01816646
1.2402	-0.01691708
1.2404	-0.01758149
1.2406	-0.01683442
1.2408	-0.01540482
1.241	-0.01424947
1.2412	-0.01329912
1.2414	-0.01347945
1.2416	-0.01103156
1.2418	-0.009384761
1.242	-0.006315208
1.2422	-0.004921257
1.2424	-0.002817498
1.2426	-0.001366709
1.2428	-0.001170502
1.243	-0.0003625927
1.2432	0.0001010455
1.2434	0.00233379
1.2436	0.004555018
1.2438	0.005100493
1.244	0.007530944
1.2442	0.01054878
1.2444	0.01085787
1.2446	0.01109725
1.2448	0.01100559
1.245	0.01115752
1.2452	0.01329868
1.2454	0.01777883
1.2456	0.01936218
1.2458	0.0162069
1.246	0.01829616
1.2462	0.0195599
1.2464	0.01857711
1.2466	0.01836932
1.2468	0.01847101
1.247	0.01932028
1.2472	0.01861464
1.2474	0.0208927
1.2476	0.02003321
1.2478	0.01979911
1.248	0.02019557
1.2482	0.01886364
1.2484	0.01850524
1.2486	0.01730682
1.2488	0.01716703
1.249	0.01628719
1.2492	0.01561391
1.2494	0.01747924
1.2496	0.01643899
1.2498	0.01539867
1.25	0.01552055
1.2502	0.01407439
1.2504	0.01307277
1.2506	0.01142987
1.2508	0.008474032
1.251	0.007247771
1.2512	0.007066878
1.2514	0.008320596
1.2516	0.008311068
1.2518	0.005999165
1.252	0.005130887
1.2522	0.003564092
1.2524	0.001697285
1.2526	0.0004940885
1.2528	0.0007536425
1.253	-0.0001248233
1.2532	-0.003003227
1.2534	-0.004560811
1.2536	-0.006595076
1.2538	-0.008831461
1.254	-0.009161554
1.2542	-0.01127939
1.2544	-0.01237509
1.2546	-0.01155747
1.2548	-0.01130564
1.255	-0.01205241
1.2552	-0.01314429
1.2554	-0.01214322
1.2556	-0.01502049
1.2558	-0.01740157
1.256	-0.01799931
1.2562	-0.01907838
1.2564	-0.01750856
1.2566	-0.01825433
1.2568	-0.02003292
1.257	-0.02003034
1.2572	-0.01742202
1.2574	-0.01746039
1.2576	-0.01851157
1.2578	-0.01694069
1.258	-0.01877329
1.2582	-0.01855533
1.2584	-0.01865285
1.2586	-0.0186697
1.2588	-0.01813445
1.259	-0.01642583
1.2592	-0.01491722
1.2594	-0.01466213
1.2596	-0.01205538
1.2598	-0.01074945
1.26	-0.01281364
1.2602	-0.0129694
1.2604	-0.01164819
1.2606	-0.009210432
1.2608	-0.008705257
1.261	-0.007847385
1.2612	-0.008758934
1.2614	-0.008165449
1.2616	-0.004994237
1.2618	-0.003179024
1.262	-0.002499346
1.2622	-0.001715487
1.2624	-0.001241447
1.2626	-0.001053495
1.2628	0.002666703
1.263	0.002410149
1.2632	0.002897442
1.2634	0.006148755
1.2636	0.005997363
1.2638	0.006829928
1.264	0.007713255
1.2642	0.008838728
1.2644	0.009338102
1.2646	0.01008851
1.2648	0.01252182
1.265	0.01241965
1.2652	0.01264806
1.2654	0.01487765
1.2656	0.01591425
1.2658	0.01808509
1.266	0.01949174
1.2662	0.01903669
1.2664	0.01866004
1.2666	0.01903558
1.2668	0.02092207
1.267	0.02132114
1.2672	0.01900099
1.2674	0.02039912
1.2676	0.01879449
1.2678	0.01625372
1.268	0.01616698
1.2682	0.01754714
1.2684	0.02006482
1.2686	0.02096743
1.2688	0.02070899
1.269	0.02062806
1.2692	0.01691237
1.2694	0.01494859
1.2696	0.01397103
1.2698	0.0114433
1.27	0.01126998
1.2702	0.01111756
1.2704	0.01087669
1.2706	0.0121774
1.2708	0.01150325
1.271	0.01034074
1.2712	0.006857387
1.2714	0.00578815
1.2716	0.004842053
1.2718	0.00349234
1.272	0.001766434
1.2722	0.001309156
1.2724	-0.0004578825
1.2726	-0.00127727
1.2728	-0.003524418
1.273	-0.004838176
1.2732	-0.005523239
1.2734	-0.00716276
1.2736	-0.0098061
1.2738	-0.01098929
1.274	-0.01208107
1.2742	-0.01233574
1.2744	-0.01140364
1.2746	-0.014121
1.2748	-0.01459829
1.275	-0.01450059
1.2752	-0.01491825
1.2754	-0.01563777
1.2756	-0.01700624
1.2758	-0.01921519
1.276	-0.01927654
1.2762	-0.01858878
1.2764	-0.01923792
1.2766	-0.01873097
1.2768	-0.01915193
1.277	-0.01916835
1.2772	-0.01999982
1.2774	-0.01886188
1.2776	-0.01628767
1.2778	-0.01620025
1.278	-0.01871901
1.2782	-0.01790198
1.2784	-0.01795913
1.2786	-0.01794949
1.2788	-0.01723229
1.279	-0.01708081
1.2792	-0.01620666
1.2794	-0.01486943
1.2796	-0.01474529
1.2798	-0.01422213
1.28	-0.01419877
1.2802	-0.01410406
1.2804	-0.01283256
1.2806	-0.01177183
1.2808	-0.009685056
1.281	-0.009020371
1.2812	-0.009865149
1.2814	-0.008503059
1.2816	-0.007689591
1.2818	-0.005866408
1.282	-0.004664542
1.2822	-0.003048189
1.2824	-0.002075244
1.2826	0.0007961795
1.2828	-0.0004144201
1.283	0.0004410792
1.2832	0.003856646
1.2834	0.005050095
1.2836	0.006855702
1.2838	0.009595517
1.284	0.009581544
1.2842	0.01089247
1.2844	0.01340617
1.2846	0.01189802
1.2848	0.01266482
1.285	0.01345484
1.2852	0.01341509
1.2854	0.01499224
1.2856	0.01632323
1.2858	0.01771124
1.286	0.01729878
1.2862	0.01819494
1.2864	0.01885111
1.2866	0.01957003
1.2868	0.02040174
1.287	0.01881874
1.2872	0.01942477
1.2874	0.01845063
1.2876	0.01850783
1.2878	0.01896969
1.288	0.02019397
1.2882	0.02301232
1.2884	0.02135125
1.2886	0.02099898
1.2888	0.01974319
1.289	0.01784373
1.2892	0.01664616
1.2894	0.01514905
1.2896	0.01470895
1.2898	0.01309309
1.29	0.01386565
1.2902	0.01173543
1.2904	0.010896
1.2906	0.01023405
1.2908	0.007810789
1.291	0.006356823
1.2912	0.006773151
1.2914	0.007428035
1.2916	0.007435012
1.2918	0.005077261
1.292	0.0007766129
